##NAMES=Calcite
##RRUFFID=R050048
##IDEAL CHEMISTRY=Ca(CO_3_)
##LOCALITY=Magdalena, New Mexico, USA
##OWNER=RRUFF
##SOURCE=University of Arizona Mineral Museum
##DESCRIPTION=Colorless massive
##STATUS=The identification of this mineral has been confirmed by X-ray diffraction and chemical analysis
##URL=https://www.rruff.net/odr/rruff_sample/R050048
##MEASURED CHEMISTRY=(Ca_0.99_Zn_0.01_)CO_3_
##DIFFRACTION SAMPLE DESCRIPTION=Powder
##CELL PARAMETERS=a: 4.9793 b: 4.9793 c: 17.0244 alpha: 90 beta: 90 gamma: 120 volume: 365.55 crystal system: hexagonal
##FILETYPE=RAW Powder Diffraction Profile

5, 40
5.01, 53
5.02, 48
5.03, 44
5.04, 42
5.05, 40
5.06, 46
5.07, 32
5.08, 42
5.09, 41
5.1, 45
5.11, 44
5.12, 42
5.13, 50
5.14, 48
5.15, 46
5.16, 42
5.17, 45
5.18, 46
5.19, 47
5.2, 54
5.21, 39
5.22, 52
5.23, 43
5.24, 35
5.25, 52
5.26, 40
5.27, 51
5.28, 38
5.29, 40
5.3, 39
5.31, 49
5.32, 35
5.33, 49
5.34, 38
5.35, 37
5.36, 38
5.37, 40
5.38, 43
5.39, 39
5.4, 39
5.41, 65
5.42, 43
5.43, 59
5.44, 44
5.45, 44
5.46, 42
5.47, 29
5.48, 45
5.49, 39
5.5, 51
5.51, 47
5.52, 60
5.53, 51
5.54, 45
5.55, 44
5.56, 43
5.57, 45
5.58, 46
5.59, 46
5.6, 40
5.61, 46
5.62, 53
5.63, 40
5.64, 51
5.65, 39
5.66, 49
5.67, 34
5.68, 43
5.69, 36
5.7, 34
5.71, 44
5.72, 39
5.73, 42
5.74, 39
5.75, 55
5.76, 50
5.77, 38
5.78, 49
5.79, 47
5.8, 46
5.81, 49
5.82, 48
5.83, 35
5.84, 46
5.85, 48
5.86, 48
5.87, 51
5.88, 50
5.89, 51
5.9, 55
5.91, 58
5.92, 47
5.93, 48
5.94, 50
5.95, 37
5.96, 41
5.97, 44
5.98, 47
5.99, 51
6, 49
6.01, 40
6.02, 52
6.03, 55
6.04, 40
6.05, 47
6.06, 56
6.07, 52
6.08, 51
6.09, 59
6.1, 46
6.11, 38
6.12, 32
6.13, 43
6.14, 45
6.15, 40
6.16, 30
6.17, 52
6.18, 56
6.19, 50
6.2, 43
6.21, 43
6.22, 53
6.23, 41
6.24, 39
6.25, 44
6.26, 36
6.27, 53
6.28, 41
6.29, 41
6.3, 53
6.31, 44
6.32, 45
6.33, 42
6.34, 38
6.35, 41
6.36, 50
6.37, 38
6.38, 39
6.39, 55
6.4, 38
6.41, 51
6.42, 49
6.43, 44
6.44, 34
6.45, 46
6.46, 47
6.47, 61
6.48, 50
6.49, 48
6.5, 42
6.51, 43
6.52, 42
6.53, 37
6.54, 35
6.55, 54
6.56, 36
6.57, 30
6.58, 37
6.59, 39
6.6, 39
6.61, 50
6.62, 33
6.63, 40
6.64, 38
6.65, 43
6.66, 44
6.67, 41
6.68, 38
6.69, 44
6.7, 36
6.71, 32
6.72, 38
6.73, 39
6.74, 42
6.75, 50
6.76, 27
6.77, 47
6.78, 43
6.79, 35
6.8, 33
6.81, 45
6.82, 45
6.83, 39
6.84, 38
6.85, 34
6.86, 31
6.87, 49
6.88, 42
6.89, 45
6.9, 38
6.91, 46
6.92, 34
6.93, 32
6.94, 34
6.95, 41
6.96, 38
6.97, 38
6.98, 45
6.99, 39
7, 38
7.01, 38
7.02, 40
7.03, 35
7.04, 37
7.05, 29
7.06, 28
7.07, 43
7.08, 45
7.09, 32
7.1, 47
7.11, 37
7.12, 36
7.13, 35
7.14, 43
7.15, 40
7.16, 46
7.17, 40
7.18, 43
7.19, 40
7.2, 32
7.21, 44
7.22, 39
7.23, 32
7.24, 34
7.25, 33
7.26, 49
7.27, 43
7.28, 38
7.29, 32
7.3, 25
7.31, 35
7.32, 36
7.33, 42
7.34, 48
7.35, 42
7.36, 22
7.37, 44
7.38, 43
7.39, 34
7.4, 33
7.41, 34
7.42, 39
7.43, 34
7.44, 36
7.45, 37
7.46, 33
7.47, 42
7.48, 33
7.49, 30
7.5, 37
7.51, 36
7.52, 32
7.53, 40
7.54, 31
7.55, 35
7.56, 37
7.57, 32
7.58, 43
7.59, 40
7.6, 39
7.61, 43
7.62, 38
7.63, 34
7.64, 31
7.65, 38
7.66, 35
7.67, 38
7.68, 40
7.69, 34
7.7, 56
7.71, 27
7.72, 34
7.73, 34
7.74, 31
7.75, 37
7.76, 36
7.77, 30
7.78, 38
7.79, 38
7.8, 36
7.81, 44
7.82, 38
7.83, 30
7.84, 43
7.85, 33
7.86, 42
7.87, 34
7.88, 41
7.89, 24
7.9, 36
7.91, 41
7.92, 41
7.93, 45
7.94, 40
7.95, 36
7.96, 36
7.97, 37
7.98, 31
7.99, 47
8, 42
8.01, 55
8.02, 35
8.03, 54
8.04, 26
8.05, 35
8.06, 53
8.07, 53
8.08, 58
8.09, 46
8.1, 67
8.11, 56
8.12, 43
8.13, 52
8.14, 38
8.15, 31
8.16, 38
8.17, 32
8.18, 42
8.19, 42
8.2, 39
8.21, 30
8.22, 37
8.23, 44
8.24, 25
8.25, 51
8.26, 38
8.27, 35
8.28, 36
8.29, 43
8.3, 43
8.31, 50
8.32, 37
8.33, 49
8.34, 43
8.35, 42
8.36, 37
8.37, 34
8.38, 39
8.39, 34
8.4, 31
8.41, 31
8.42, 34
8.43, 38
8.44, 34
8.45, 34
8.46, 41
8.47, 60
8.48, 46
8.49, 36
8.5, 45
8.51, 44
8.52, 45
8.53, 45
8.54, 47
8.55, 47
8.56, 37
8.57, 40
8.58, 50
8.59, 43
8.6, 46
8.61, 45
8.62, 62
8.63, 51
8.64, 55
8.65, 64
8.66, 62
8.67, 68
8.68, 75
8.69, 76
8.7, 62
8.71, 77
8.72, 77
8.73, 82
8.74, 84
8.75, 97
8.76, 106
8.77, 108
8.78, 133
8.79, 141
8.8, 140
8.81, 153
8.82, 182
8.83, 201
8.84, 229
8.85, 247
8.86, 318
8.87, 355
8.88, 434
8.89, 515
8.9, 584
8.91, 729
8.92, 927
8.93, 1092
8.94, 1142
8.95, 1295
8.96, 1148
8.97, 1089
8.98, 845
8.99, 619
9, 409
9.01, 275
9.02, 201
9.03, 145
9.04, 109
9.05, 94
9.06, 84
9.07, 72
9.08, 79
9.09, 59
9.1, 66
9.11, 55
9.12, 59
9.13, 43
9.14, 62
9.15, 49
9.16, 59
9.17, 50
9.18, 36
9.19, 37
9.2, 46
9.21, 48
9.22, 45
9.23, 38
9.24, 49
9.25, 42
9.26, 51
9.27, 42
9.28, 31
9.29, 42
9.3, 36
9.31, 34
9.32, 39
9.33, 35
9.34, 33
9.35, 32
9.36, 25
9.37, 37
9.38, 29
9.39, 26
9.4, 37
9.41, 38
9.42, 30
9.43, 43
9.44, 42
9.45, 29
9.46, 35
9.47, 30
9.48, 26
9.49, 26
9.5, 47
9.51, 33
9.52, 21
9.53, 27
9.54, 32
9.55, 25
9.56, 28
9.57, 35
9.58, 30
9.59, 31
9.6, 29
9.61, 40
9.62, 25
9.63, 37
9.64, 25
9.65, 27
9.66, 33
9.67, 19
9.68, 30
9.69, 29
9.7, 22
9.71, 27
9.72, 29
9.73, 21
9.74, 34
9.75, 30
9.76, 32
9.77, 26
9.78, 29
9.79, 25
9.8, 27
9.81, 26
9.82, 22
9.83, 22
9.84, 32
9.85, 30
9.86, 20
9.87, 31
9.88, 27
9.89, 29
9.9, 33
9.91, 22
9.92, 35
9.93, 30
9.94, 32
9.95, 30
9.96, 33
9.97, 26
9.98, 27
9.99, 35
10, 25
10.01, 35
10.02, 24
10.03, 26
10.04, 21
10.05, 26
10.06, 19
10.07, 15
10.08, 26
10.09, 22
10.1, 34
10.11, 34
10.12, 31
10.13, 36
10.14, 32
10.15, 24
10.16, 31
10.17, 23
10.18, 22
10.19, 26
10.2, 33
10.21, 34
10.22, 31
10.23, 32
10.24, 20
10.25, 21
10.26, 27
10.27, 19
10.28, 20
10.29, 26
10.3, 25
10.31, 23
10.32, 28
10.33, 26
10.34, 30
10.35, 23
10.36, 18
10.37, 30
10.38, 18
10.39, 24
10.4, 30
10.41, 40
10.42, 31
10.43, 29
10.44, 27
10.45, 27
10.46, 31
10.47, 24
10.48, 26
10.49, 24
10.5, 24
10.51, 29
10.52, 36
10.53, 25
10.54, 23
10.55, 26
10.56, 20
10.57, 23
10.58, 28
10.59, 27
10.6, 28
10.61, 30
10.62, 20
10.63, 36
10.64, 31
10.65, 20
10.66, 26
10.67, 38
10.68, 27
10.69, 26
10.7, 26
10.71, 35
10.72, 23
10.73, 23
10.74, 27
10.75, 16
10.76, 41
10.77, 20
10.78, 24
10.79, 22
10.8, 26
10.81, 36
10.82, 22
10.83, 29
10.84, 22
10.85, 25
10.86, 31
10.87, 23
10.88, 30
10.89, 20
10.9, 36
10.91, 25
10.92, 29
10.93, 31
10.94, 31
10.95, 23
10.96, 30
10.97, 27
10.98, 20
10.99, 25
11, 23
11.01, 20
11.02, 30
11.03, 26
11.04, 26
11.05, 25
11.06, 32
11.07, 32
11.08, 18
11.09, 22
11.1, 20
11.11, 19
11.12, 33
11.13, 25
11.14, 21
11.15, 28
11.16, 25
11.17, 24
11.18, 40
11.19, 20
11.2, 17
11.21, 22
11.22, 20
11.23, 28
11.24, 25
11.25, 32
11.26, 25
11.27, 34
11.28, 28
11.29, 13
11.3, 18
11.31, 19
11.32, 30
11.33, 18
11.34, 37
11.35, 22
11.36, 23
11.37, 19
11.38, 25
11.39, 15
11.4, 29
11.41, 29
11.42, 25
11.43, 31
11.44, 20
11.45, 28
11.46, 28
11.47, 19
11.48, 32
11.49, 22
11.5, 25
11.51, 30
11.52, 22
11.53, 20
11.54, 25
11.55, 23
11.56, 34
11.57, 18
11.58, 28
11.59, 19
11.6, 17
11.61, 36
11.62, 38
11.63, 26
11.64, 28
11.65, 27
11.66, 21
11.67, 21
11.68, 27
11.69, 20
11.7, 34
11.71, 22
11.72, 32
11.73, 27
11.74, 16
11.75, 24
11.76, 14
11.77, 19
11.78, 24
11.79, 26
11.8, 30
11.81, 31
11.82, 25
11.83, 21
11.84, 16
11.85, 19
11.86, 31
11.87, 33
11.88, 29
11.89, 32
11.9, 20
11.91, 25
11.92, 32
11.93, 25
11.94, 25
11.95, 29
11.96, 16
11.97, 29
11.98, 16
11.99, 19
12, 15
12.01, 18
12.02, 26
12.03, 29
12.04, 25
12.05, 24
12.06, 21
12.07, 27
12.08, 18
12.09, 25
12.1, 34
12.11, 22
12.12, 22
12.13, 31
12.14, 24
12.15, 28
12.16, 15
12.17, 25
12.18, 19
12.19, 28
12.2, 30
12.21, 26
12.22, 19
12.23, 23
12.24, 26
12.25, 23
12.26, 31
12.27, 22
12.28, 16
12.29, 18
12.3, 29
12.31, 27
12.32, 36
12.33, 23
12.34, 22
12.35, 34
12.36, 24
12.37, 28
12.38, 29
12.39, 21
12.4, 33
12.41, 29
12.42, 20
12.43, 16
12.44, 22
12.45, 23
12.46, 27
12.47, 20
12.48, 25
12.49, 25
12.5, 26
12.51, 24
12.52, 19
12.53, 15
12.54, 23
12.55, 22
12.56, 21
12.57, 23
12.58, 20
12.59, 35
12.6, 30
12.61, 30
12.62, 17
12.63, 26
12.64, 29
12.65, 32
12.66, 29
12.67, 22
12.68, 26
12.69, 27
12.7, 21
12.71, 22
12.72, 26
12.73, 22
12.74, 17
12.75, 31
12.76, 32
12.77, 32
12.78, 23
12.79, 20
12.8, 28
12.81, 26
12.82, 23
12.83, 21
12.84, 23
12.85, 21
12.86, 26
12.87, 20
12.88, 20
12.89, 22
12.9, 28
12.91, 24
12.92, 31
12.93, 23
12.94, 25
12.95, 27
12.96, 20
12.97, 28
12.98, 32
12.99, 28
13, 21
13.01, 24
13.02, 18
13.03, 18
13.04, 19
13.05, 20
13.06, 33
13.07, 15
13.08, 22
13.09, 25
13.1, 23
13.11, 26
13.12, 14
13.13, 30
13.14, 37
13.15, 26
13.16, 27
13.17, 28
13.18, 28
13.19, 21
13.2, 25
13.21, 16
13.22, 20
13.23, 16
13.24, 20
13.25, 26
13.26, 20
13.27, 36
13.28, 27
13.29, 22
13.3, 25
13.31, 14
13.32, 20
13.33, 21
13.34, 34
13.35, 18
13.36, 27
13.37, 27
13.38, 28
13.39, 23
13.4, 30
13.41, 22
13.42, 18
13.43, 26
13.44, 29
13.45, 24
13.46, 18
13.47, 25
13.48, 27
13.49, 31
13.5, 20
13.51, 27
13.52, 36
13.53, 27
13.54, 21
13.55, 20
13.56, 28
13.57, 28
13.58, 18
13.59, 29
13.6, 28
13.61, 25
13.62, 17
13.63, 28
13.64, 25
13.65, 24
13.66, 26
13.67, 26
13.68, 16
13.69, 19
13.7, 20
13.71, 18
13.72, 22
13.73, 12
13.74, 21
13.75, 35
13.76, 20
13.77, 21
13.78, 17
13.79, 23
13.8, 26
13.81, 24
13.82, 23
13.83, 18
13.84, 15
13.85, 20
13.86, 24
13.87, 30
13.88, 28
13.89, 27
13.9, 19
13.91, 18
13.92, 14
13.93, 25
13.94, 27
13.95, 20
13.96, 28
13.97, 26
13.98, 25
13.99, 27
14, 17
14.01, 29
14.02, 31
14.03, 21
14.04, 27
14.05, 27
14.06, 25
14.07, 26
14.08, 20
14.09, 18
14.1, 27
14.11, 23
14.12, 19
14.13, 27
14.14, 24
14.15, 24
14.16, 16
14.17, 26
14.18, 29
14.19, 28
14.2, 24
14.21, 19
14.22, 29
14.23, 25
14.24, 17
14.25, 25
14.26, 19
14.27, 27
14.28, 37
14.29, 18
14.3, 24
14.31, 21
14.32, 25
14.33, 26
14.34, 32
14.35, 20
14.36, 20
14.37, 20
14.38, 23
14.39, 17
14.4, 21
14.41, 25
14.42, 11
14.43, 19
14.44, 11
14.45, 21
14.46, 23
14.47, 25
14.48, 27
14.49, 25
14.5, 15
14.51, 16
14.52, 24
14.53, 23
14.54, 35
14.55, 20
14.56, 24
14.57, 28
14.58, 22
14.59, 31
14.6, 22
14.61, 33
14.62, 27
14.63, 22
14.64, 26
14.65, 24
14.66, 16
14.67, 14
14.68, 27
14.69, 37
14.7, 30
14.71, 13
14.72, 27
14.73, 18
14.74, 34
14.75, 23
14.76, 25
14.77, 28
14.78, 26
14.79, 27
14.8, 19
14.81, 28
14.82, 33
14.83, 17
14.84, 27
14.85, 27
14.86, 24
14.87, 19
14.88, 26
14.89, 23
14.9, 19
14.91, 31
14.92, 30
14.93, 18
14.94, 18
14.95, 24
14.96, 26
14.97, 19
14.98, 16
14.99, 21
15, 28
15.01, 21
15.02, 13
15.03, 22
15.04, 17
15.05, 24
15.06, 28
15.07, 25
15.08, 26
15.09, 18
15.1, 15
15.11, 21
15.12, 30
15.13, 19
15.14, 32
15.15, 28
15.16, 17
15.17, 24
15.18, 22
15.19, 26
15.2, 27
15.21, 25
15.22, 23
15.23, 20
15.24, 22
15.25, 17
15.26, 15
15.27, 20
15.28, 22
15.29, 25
15.3, 14
15.31, 30
15.32, 28
15.33, 20
15.34, 33
15.35, 24
15.36, 32
15.37, 23
15.38, 24
15.39, 31
15.4, 17
15.41, 28
15.42, 25
15.43, 21
15.44, 17
15.45, 21
15.46, 21
15.47, 16
15.48, 22
15.49, 31
15.5, 26
15.51, 25
15.52, 21
15.53, 18
15.54, 17
15.55, 25
15.56, 25
15.57, 28
15.58, 25
15.59, 22
15.6, 17
15.61, 21
15.62, 31
15.63, 25
15.64, 27
15.65, 17
15.66, 26
15.67, 23
15.68, 32
15.69, 25
15.7, 20
15.71, 26
15.72, 34
15.73, 24
15.74, 30
15.75, 26
15.76, 21
15.77, 14
15.78, 26
15.79, 22
15.8, 22
15.81, 21
15.82, 28
15.83, 27
15.84, 23
15.85, 18
15.86, 30
15.87, 24
15.88, 28
15.89, 26
15.9, 18
15.91, 26
15.92, 24
15.93, 26
15.94, 26
15.95, 24
15.96, 21
15.97, 29
15.98, 25
15.99, 22
16, 16
16.01, 18
16.02, 26
16.03, 35
16.04, 25
16.05, 28
16.06, 29
16.07, 25
16.08, 24
16.09, 15
16.1, 20
16.11, 28
16.12, 17
16.13, 20
16.14, 31
16.15, 30
16.16, 27
16.17, 23
16.18, 36
16.19, 23
16.2, 28
16.21, 27
16.22, 16
16.23, 25
16.24, 22
16.25, 25
16.26, 21
16.27, 24
16.28, 33
16.29, 28
16.3, 20
16.31, 22
16.32, 33
16.33, 17
16.34, 20
16.35, 31
16.36, 27
16.37, 14
16.38, 35
16.39, 24
16.4, 27
16.41, 22
16.42, 20
16.43, 26
16.44, 31
16.45, 18
16.46, 35
16.47, 24
16.48, 20
16.49, 21
16.5, 25
16.51, 20
16.52, 25
16.53, 15
16.54, 29
16.55, 29
16.56, 36
16.57, 25
16.58, 26
16.59, 32
16.6, 22
16.61, 31
16.62, 32
16.63, 26
16.64, 25
16.65, 29
16.66, 27
16.67, 22
16.68, 31
16.69, 22
16.7, 24
16.71, 25
16.72, 25
16.73, 35
16.74, 26
16.75, 25
16.76, 29
16.77, 22
16.78, 19
16.79, 17
16.8, 20
16.81, 22
16.82, 21
16.83, 22
16.84, 25
16.85, 26
16.86, 24
16.87, 26
16.88, 25
16.89, 21
16.9, 31
16.91, 26
16.92, 22
16.93, 24
16.94, 17
16.95, 24
16.96, 19
16.97, 16
16.98, 26
16.99, 17
17, 23
17.01, 12
17.02, 29
17.03, 22
17.04, 21
17.05, 29
17.06, 18
17.07, 16
17.08, 24
17.09, 23
17.1, 22
17.11, 15
17.12, 35
17.13, 22
17.14, 20
17.15, 19
17.16, 25
17.17, 26
17.18, 19
17.19, 24
17.2, 42
17.21, 19
17.22, 34
17.23, 26
17.24, 28
17.25, 34
17.26, 27
17.27, 30
17.28, 24
17.29, 24
17.3, 25
17.31, 26
17.32, 26
17.33, 24
17.34, 18
17.35, 37
17.36, 28
17.37, 19
17.38, 26
17.39, 31
17.4, 30
17.41, 40
17.42, 28
17.43, 24
17.44, 13
17.45, 21
17.46, 20
17.47, 20
17.48, 26
17.49, 37
17.5, 22
17.51, 27
17.52, 20
17.53, 18
17.54, 25
17.55, 20
17.56, 34
17.57, 31
17.58, 42
17.59, 26
17.6, 23
17.61, 27
17.62, 29
17.63, 32
17.64, 27
17.65, 31
17.66, 29
17.67, 40
17.68, 28
17.69, 20
17.7, 43
17.71, 31
17.72, 48
17.73, 36
17.74, 38
17.75, 37
17.76, 45
17.77, 37
17.78, 54
17.79, 57
17.8, 69
17.81, 74
17.82, 76
17.83, 89
17.84, 122
17.85, 124
17.86, 154
17.87, 202
17.88, 225
17.89, 285
17.9, 352
17.91, 403
17.92, 414
17.93, 418
17.94, 334
17.95, 294
17.96, 256
17.97, 215
17.98, 179
17.99, 125
18, 84
18.01, 61
18.02, 56
18.03, 47
18.04, 49
18.05, 35
18.06, 39
18.07, 38
18.08, 37
18.09, 23
18.1, 50
18.11, 34
18.12, 40
18.13, 30
18.14, 31
18.15, 22
18.16, 36
18.17, 33
18.18, 31
18.19, 27
18.2, 30
18.21, 32
18.22, 21
18.23, 29
18.24, 26
18.25, 24
18.26, 27
18.27, 20
18.28, 23
18.29, 29
18.3, 30
18.31, 25
18.32, 40
18.33, 25
18.34, 26
18.35, 35
18.36, 27
18.37, 25
18.38, 27
18.39, 32
18.4, 20
18.41, 33
18.42, 24
18.43, 26
18.44, 27
18.45, 22
18.46, 22
18.47, 23
18.48, 24
18.49, 22
18.5, 18
18.51, 18
18.52, 19
18.53, 25
18.54, 23
18.55, 27
18.56, 24
18.57, 19
18.58, 21
18.59, 36
18.6, 23
18.61, 24
18.62, 22
18.63, 26
18.64, 26
18.65, 23
18.66, 26
18.67, 26
18.68, 21
18.69, 22
18.7, 33
18.71, 31
18.72, 22
18.73, 19
18.74, 15
18.75, 25
18.76, 19
18.77, 19
18.78, 23
18.79, 29
18.8, 23
18.81, 27
18.82, 23
18.83, 25
18.84, 25
18.85, 12
18.86, 25
18.87, 25
18.88, 20
18.89, 19
18.9, 34
18.91, 21
18.92, 25
18.93, 26
18.94, 21
18.95, 12
18.96, 30
18.97, 21
18.98, 18
18.99, 18
19, 22
19.01, 22
19.02, 24
19.03, 23
19.04, 27
19.05, 24
19.06, 22
19.07, 16
19.08, 33
19.09, 25
19.1, 21
19.11, 20
19.12, 24
19.13, 32
19.14, 29
19.15, 18
19.16, 22
19.17, 19
19.18, 27
19.19, 25
19.2, 23
19.21, 25
19.22, 23
19.23, 31
19.24, 24
19.25, 27
19.26, 20
19.27, 24
19.28, 24
19.29, 23
19.3, 22
19.31, 21
19.32, 20
19.33, 28
19.34, 25
19.35, 21
19.36, 17
19.37, 35
19.38, 28
19.39, 19
19.4, 17
19.41, 27
19.42, 27
19.43, 20
19.44, 21
19.45, 22
19.46, 23
19.47, 20
19.48, 20
19.49, 23
19.5, 25
19.51, 26
19.52, 25
19.53, 34
19.54, 36
19.55, 28
19.56, 38
19.57, 21
19.58, 29
19.59, 30
19.6, 40
19.61, 23
19.62, 35
19.63, 28
19.64, 26
19.65, 46
19.66, 40
19.67, 38
19.68, 35
19.69, 41
19.7, 27
19.71, 44
19.72, 59
19.73, 53
19.74, 55
19.75, 55
19.76, 59
19.77, 48
19.78, 54
19.79, 76
19.8, 58
19.81, 87
19.82, 64
19.83, 81
19.84, 80
19.85, 88
19.86, 92
19.87, 75
19.88, 101
19.89, 80
19.9, 97
19.91, 81
19.92, 88
19.93, 62
19.94, 67
19.95, 70
19.96, 44
19.97, 55
19.98, 47
19.99, 41
20, 39
20.01, 36
20.02, 38
20.03, 44
20.04, 40
20.05, 28
20.06, 44
20.07, 41
20.08, 31
20.09, 23
20.1, 25
20.11, 44
20.12, 38
20.13, 47
20.14, 33
20.15, 37
20.16, 40
20.17, 32
20.18, 41
20.19, 25
20.2, 25
20.21, 33
20.22, 38
20.23, 40
20.24, 44
20.25, 27
20.26, 33
20.27, 34
20.28, 31
20.29, 26
20.3, 39
20.31, 39
20.32, 29
20.33, 19
20.34, 25
20.35, 22
20.36, 23
20.37, 30
20.38, 29
20.39, 25
20.4, 41
20.41, 16
20.42, 28
20.43, 31
20.44, 21
20.45, 23
20.46, 27
20.47, 34
20.48, 21
20.49, 23
20.5, 27
20.51, 21
20.52, 31
20.53, 33
20.54, 33
20.55, 27
20.56, 40
20.57, 24
20.58, 33
20.59, 32
20.6, 40
20.61, 32
20.62, 29
20.63, 31
20.64, 36
20.65, 43
20.66, 38
20.67, 36
20.68, 32
20.69, 39
20.7, 32
20.71, 23
20.72, 23
20.73, 25
20.74, 35
20.75, 34
20.76, 43
20.77, 42
20.78, 22
20.79, 30
20.8, 16
20.81, 30
20.82, 19
20.83, 23
20.84, 21
20.85, 26
20.86, 22
20.87, 28
20.88, 16
20.89, 23
20.9, 27
20.91, 21
20.92, 29
20.93, 21
20.94, 21
20.95, 25
20.96, 23
20.97, 24
20.98, 22
20.99, 19
21, 23
21.01, 25
21.02, 14
21.03, 25
21.04, 20
21.05, 26
21.06, 30
21.07, 29
21.08, 32
21.09, 23
21.1, 31
21.11, 22
21.12, 23
21.13, 27
21.14, 15
21.15, 17
21.16, 25
21.17, 30
21.18, 34
21.19, 25
21.2, 20
21.21, 32
21.22, 22
21.23, 25
21.24, 22
21.25, 23
21.26, 21
21.27, 19
21.28, 27
21.29, 20
21.3, 24
21.31, 23
21.32, 26
21.33, 14
21.34, 20
21.35, 29
21.36, 27
21.37, 28
21.38, 36
21.39, 28
21.4, 26
21.41, 31
21.42, 21
21.43, 23
21.44, 39
21.45, 34
21.46, 19
21.47, 24
21.48, 28
21.49, 24
21.5, 25
21.51, 28
21.52, 28
21.53, 24
21.54, 32
21.55, 34
21.56, 34
21.57, 19
21.58, 32
21.59, 29
21.6, 44
21.61, 43
21.62, 26
21.63, 31
21.64, 39
21.65, 34
21.66, 38
21.67, 38
21.68, 42
21.69, 32
21.7, 29
21.71, 28
21.72, 27
21.73, 34
21.74, 31
21.75, 35
21.76, 24
21.77, 36
21.78, 26
21.79, 29
21.8, 29
21.81, 23
21.82, 30
21.83, 31
21.84, 25
21.85, 34
21.86, 21
21.87, 27
21.88, 22
21.89, 18
21.9, 28
21.91, 23
21.92, 20
21.93, 28
21.94, 21
21.95, 21
21.96, 18
21.97, 29
21.98, 23
21.99, 22
22, 23
22.01, 26
22.02, 24
22.03, 22
22.04, 28
22.05, 32
22.06, 15
22.07, 29
22.08, 23
22.09, 27
22.1, 29
22.11, 24
22.12, 32
22.13, 19
22.14, 20
22.15, 27
22.16, 22
22.17, 28
22.18, 22
22.19, 24
22.2, 21
22.21, 31
22.22, 27
22.23, 29
22.24, 34
22.25, 24
22.26, 19
22.27, 28
22.28, 28
22.29, 35
22.3, 38
22.31, 30
22.32, 31
22.33, 30
22.34, 30
22.35, 21
22.36, 30
22.37, 30
22.38, 32
22.39, 28
22.4, 24
22.41, 39
22.42, 26
22.43, 36
22.44, 22
22.45, 31
22.46, 28
22.47, 35
22.48, 30
22.49, 39
22.5, 31
22.51, 44
22.52, 24
22.53, 34
22.54, 31
22.55, 32
22.56, 34
22.57, 27
22.58, 22
22.59, 32
22.6, 26
22.61, 29
22.62, 32
22.63, 21
22.64, 28
22.65, 29
22.66, 23
22.67, 40
22.68, 26
22.69, 24
22.7, 33
22.71, 33
22.72, 26
22.73, 38
22.74, 25
22.75, 29
22.76, 36
22.77, 22
22.78, 32
22.79, 24
22.8, 26
22.81, 28
22.82, 31
22.83, 35
22.84, 48
22.85, 39
22.86, 51
22.87, 33
22.88, 47
22.89, 47
22.9, 51
22.91, 57
22.92, 67
22.93, 72
22.94, 61
22.95, 73
22.96, 69
22.97, 90
22.98, 91
22.99, 65
23, 55
23.01, 46
23.02, 55
23.03, 59
23.04, 53
23.05, 52
23.06, 35
23.07, 34
23.08, 53
23.09, 39
23.1, 40
23.11, 38
23.12, 38
23.13, 35
23.14, 30
23.15, 27
23.16, 34
23.17, 33
23.18, 35
23.19, 34
23.2, 26
23.21, 23
23.22, 31
23.23, 38
23.24, 31
23.25, 33
23.26, 26
23.27, 32
23.28, 26
23.29, 28
23.3, 22
23.31, 19
23.32, 39
23.33, 28
23.34, 25
23.35, 22
23.36, 28
23.37, 29
23.38, 17
23.39, 27
23.4, 29
23.41, 20
23.42, 28
23.43, 31
23.44, 26
23.45, 25
23.46, 23
23.47, 27
23.48, 30
23.49, 42
23.5, 28
23.51, 31
23.52, 24
23.53, 36
23.54, 38
23.55, 24
23.56, 24
23.57, 44
23.58, 29
23.59, 28
23.6, 39
23.61, 35
23.62, 34
23.63, 40
23.64, 26
23.65, 32
23.66, 32
23.67, 32
23.68, 32
23.69, 26
23.7, 44
23.71, 33
23.72, 30
23.73, 32
23.74, 34
23.75, 48
23.76, 34
23.77, 52
23.78, 44
23.79, 51
23.8, 56
23.81, 62
23.82, 74
23.83, 65
23.84, 54
23.85, 64
23.86, 85
23.87, 72
23.88, 67
23.89, 71
23.9, 73
23.91, 62
23.92, 74
23.93, 57
23.94, 48
23.95, 68
23.96, 42
23.97, 44
23.98, 50
23.99, 52
24, 47
24.01, 42
24.02, 38
24.03, 31
24.04, 26
24.05, 23
24.06, 34
24.07, 22
24.08, 35
24.09, 27
24.1, 33
24.11, 21
24.12, 27
24.13, 28
24.14, 32
24.15, 26
24.16, 28
24.17, 26
24.18, 36
24.19, 24
24.2, 31
24.21, 23
24.22, 27
24.23, 28
24.24, 41
24.25, 33
24.26, 35
24.27, 30
24.28, 32
24.29, 26
24.3, 29
24.31, 32
24.32, 33
24.33, 40
24.34, 36
24.35, 43
24.36, 33
24.37, 34
24.38, 37
24.39, 35
24.4, 31
24.41, 32
24.42, 28
24.43, 34
24.44, 27
24.45, 28
24.46, 37
24.47, 28
24.48, 22
24.49, 20
24.5, 27
24.51, 25
24.52, 31
24.53, 26
24.54, 36
24.55, 31
24.56, 21
24.57, 25
24.58, 26
24.59, 29
24.6, 29
24.61, 31
24.62, 24
24.63, 29
24.64, 18
24.65, 21
24.66, 21
24.67, 23
24.68, 27
24.69, 32
24.7, 32
24.71, 21
24.72, 32
24.73, 28
24.74, 29
24.75, 23
24.76, 22
24.77, 19
24.78, 16
24.79, 24
24.8, 28
24.81, 25
24.82, 28
24.83, 32
24.84, 27
24.85, 27
24.86, 29
24.87, 30
24.88, 31
24.89, 29
24.9, 27
24.91, 26
24.92, 46
24.93, 35
24.94, 34
24.95, 31
24.96, 23
24.97, 31
24.98, 31
24.99, 31
25, 18
25.01, 36
25.02, 30
25.03, 27
25.04, 23
25.05, 32
25.06, 20
25.07, 29
25.08, 26
25.09, 27
25.1, 27
25.11, 24
25.12, 42
25.13, 29
25.14, 31
25.15, 28
25.16, 25
25.17, 23
25.18, 30
25.19, 36
25.2, 37
25.21, 37
25.22, 35
25.23, 27
25.24, 32
25.25, 43
25.26, 37
25.27, 25
25.28, 34
25.29, 36
25.3, 27
25.31, 39
25.32, 31
25.33, 33
25.34, 35
25.35, 26
25.36, 41
25.37, 39
25.38, 34
25.39, 32
25.4, 37
25.41, 42
25.42, 41
25.43, 43
25.44, 43
25.45, 55
25.46, 58
25.47, 69
25.48, 59
25.49, 79
25.5, 80
25.51, 69
25.52, 77
25.53, 102
25.54, 101
25.55, 113
25.56, 103
25.57, 103
25.58, 94
25.59, 94
25.6, 104
25.61, 102
25.62, 110
25.63, 88
25.64, 97
25.65, 86
25.66, 75
25.67, 87
25.68, 72
25.69, 57
25.7, 71
25.71, 62
25.72, 51
25.73, 64
25.74, 47
25.75, 49
25.76, 53
25.77, 42
25.78, 30
25.79, 39
25.8, 36
25.81, 35
25.82, 43
25.83, 33
25.84, 34
25.85, 46
25.86, 31
25.87, 41
25.88, 32
25.89, 34
25.9, 36
25.91, 29
25.92, 26
25.93, 34
25.94, 34
25.95, 32
25.96, 29
25.97, 44
25.98, 35
25.99, 24
26, 34
26.01, 24
26.02, 39
26.03, 23
26.04, 37
26.05, 37
26.06, 30
26.07, 39
26.08, 26
26.09, 41
26.1, 32
26.11, 25
26.12, 27
26.13, 30
26.14, 39
26.15, 26
26.16, 44
26.17, 32
26.18, 36
26.19, 40
26.2, 36
26.21, 29
26.22, 29
26.23, 35
26.24, 33
26.25, 26
26.26, 37
26.27, 35
26.28, 34
26.29, 30
26.3, 38
26.31, 37
26.32, 39
26.33, 37
26.34, 42
26.35, 46
26.36, 33
26.37, 36
26.38, 39
26.39, 42
26.4, 26
26.41, 44
26.42, 39
26.43, 37
26.44, 32
26.45, 31
26.46, 41
26.47, 43
26.48, 35
26.49, 44
26.5, 55
26.51, 43
26.52, 37
26.53, 43
26.54, 40
26.55, 43
26.56, 38
26.57, 56
26.58, 54
26.59, 57
26.6, 53
26.61, 71
26.62, 67
26.63, 70
26.64, 76
26.65, 86
26.66, 82
26.67, 104
26.68, 111
26.69, 100
26.7, 104
26.71, 92
26.72, 95
26.73, 122
26.74, 108
26.75, 120
26.76, 105
26.77, 90
26.78, 86
26.79, 91
26.8, 122
26.81, 98
26.82, 100
26.83, 119
26.84, 100
26.85, 124
26.86, 114
26.87, 130
26.88, 147
26.89, 153
26.9, 201
26.91, 236
26.92, 276
26.93, 349
26.94, 398
26.95, 518
26.96, 649
26.97, 799
26.98, 810
26.99, 886
27, 862
27.01, 751
27.02, 657
27.03, 549
27.04, 545
27.05, 557
27.06, 481
27.07, 476
27.08, 394
27.09, 266
27.1, 178
27.11, 150
27.12, 110
27.13, 85
27.14, 91
27.15, 71
27.16, 73
27.17, 60
27.18, 54
27.19, 56
27.2, 64
27.21, 48
27.22, 63
27.23, 51
27.24, 55
27.25, 39
27.26, 48
27.27, 45
27.28, 39
27.29, 38
27.3, 46
27.31, 27
27.32, 31
27.33, 34
27.34, 47
27.35, 47
27.36, 45
27.37, 52
27.38, 41
27.39, 30
27.4, 44
27.41, 35
27.42, 33
27.43, 41
27.44, 42
27.45, 42
27.46, 38
27.47, 44
27.48, 40
27.49, 32
27.5, 32
27.51, 32
27.52, 31
27.53, 37
27.54, 38
27.55, 48
27.56, 37
27.57, 42
27.58, 49
27.59, 39
27.6, 35
27.61, 41
27.62, 28
27.63, 30
27.64, 36
27.65, 44
27.66, 29
27.67, 43
27.68, 39
27.69, 50
27.7, 40
27.71, 50
27.72, 38
27.73, 40
27.74, 52
27.75, 38
27.76, 39
27.77, 55
27.78, 53
27.79, 46
27.8, 56
27.81, 55
27.82, 51
27.83, 62
27.84, 72
27.85, 89
27.86, 66
27.87, 88
27.88, 111
27.89, 118
27.9, 115
27.91, 133
27.92, 117
27.93, 132
27.94, 125
27.95, 132
27.96, 89
27.97, 124
27.98, 109
27.99, 108
28, 110
28.01, 95
28.02, 117
28.03, 94
28.04, 64
28.05, 88
28.06, 75
28.07, 64
28.08, 45
28.09, 63
28.1, 47
28.11, 54
28.12, 50
28.13, 55
28.14, 57
28.15, 49
28.16, 46
28.17, 51
28.18, 41
28.19, 52
28.2, 34
28.21, 29
28.22, 40
28.23, 35
28.24, 38
28.25, 36
28.26, 37
28.27, 36
28.28, 31
28.29, 34
28.3, 28
28.31, 40
28.32, 29
28.33, 29
28.34, 35
28.35, 32
28.36, 23
28.37, 23
28.38, 32
28.39, 36
28.4, 32
28.41, 20
28.42, 45
28.43, 26
28.44, 41
28.45, 25
28.46, 33
28.47, 29
28.48, 33
28.49, 25
28.5, 40
28.51, 27
28.52, 37
28.53, 28
28.54, 35
28.55, 33
28.56, 29
28.57, 29
28.58, 32
28.59, 34
28.6, 32
28.61, 34
28.62, 29
28.63, 25
28.64, 26
28.65, 44
28.66, 40
28.67, 40
28.68, 51
28.69, 41
28.7, 32
28.71, 44
28.72, 40
28.73, 43
28.74, 47
28.75, 41
28.76, 52
28.77, 41
28.78, 32
28.79, 26
28.8, 41
28.81, 34
28.82, 31
28.83, 25
28.84, 32
28.85, 35
28.86, 25
28.87, 35
28.88, 32
28.89, 42
28.9, 33
28.91, 31
28.92, 24
28.93, 23
28.94, 31
28.95, 35
28.96, 39
28.97, 23
28.98, 41
28.99, 25
29, 21
29.01, 34
29.02, 46
29.03, 36
29.04, 36
29.05, 36
29.06, 40
29.07, 22
29.08, 33
29.09, 24
29.1, 32
29.11, 32
29.12, 36
29.13, 34
29.14, 33
29.15, 33
29.16, 18
29.17, 31
29.18, 37
29.19, 31
29.2, 25
29.21, 31
29.22, 26
29.23, 29
29.24, 24
29.25, 22
29.26, 28
29.27, 28
29.28, 26
29.29, 29
29.3, 25
29.31, 37
29.32, 25
29.33, 28
29.34, 35
29.35, 34
29.36, 45
29.37, 40
29.38, 30
29.39, 34
29.4, 28
29.41, 21
29.42, 33
29.43, 32
29.44, 30
29.45, 23
29.46, 36
29.47, 31
29.48, 26
29.49, 26
29.5, 25
29.51, 34
29.52, 33
29.53, 34
29.54, 38
29.55, 35
29.56, 26
29.57, 42
29.58, 38
29.59, 38
29.6, 31
29.61, 27
29.62, 30
29.63, 34
29.64, 29
29.65, 31
29.66, 36
29.67, 34
29.68, 42
29.69, 42
29.7, 38
29.71, 42
29.72, 32
29.73, 33
29.74, 40
29.75, 40
29.76, 46
29.77, 64
29.78, 28
29.79, 49
29.8, 52
29.81, 47
29.82, 52
29.83, 62
29.84, 48
29.85, 57
29.86, 82
29.87, 67
29.88, 69
29.89, 53
29.9, 106
29.91, 79
29.92, 111
29.93, 119
29.94, 120
29.95, 135
29.96, 125
29.97, 108
29.98, 124
29.99, 159
30, 148
30.01, 144
30.02, 148
30.03, 133
30.04, 125
30.05, 125
30.06, 117
30.07, 106
30.08, 95
30.09, 88
30.1, 87
30.11, 89
30.12, 84
30.13, 80
30.14, 62
30.15, 70
30.16, 55
30.17, 53
30.18, 62
30.19, 59
30.2, 61
30.21, 43
30.22, 47
30.23, 52
30.24, 37
30.25, 56
30.26, 43
30.27, 37
30.28, 43
30.29, 33
30.3, 31
30.31, 44
30.32, 30
30.33, 46
30.34, 25
30.35, 37
30.36, 40
30.37, 32
30.38, 31
30.39, 29
30.4, 33
30.41, 38
30.42, 34
30.43, 33
30.44, 30
30.45, 39
30.46, 24
30.47, 26
30.48, 38
30.49, 27
30.5, 28
30.51, 21
30.52, 23
30.53, 24
30.54, 14
30.55, 46
30.56, 26
30.57, 35
30.58, 36
30.59, 35
30.6, 36
30.61, 31
30.62, 34
30.63, 21
30.64, 35
30.65, 28
30.66, 30
30.67, 21
30.68, 31
30.69, 34
30.7, 19
30.71, 16
30.72, 29
30.73, 28
30.74, 29
30.75, 31
30.76, 37
30.77, 19
30.78, 37
30.79, 23
30.8, 31
30.81, 24
30.82, 47
30.83, 28
30.84, 28
30.85, 30
30.86, 25
30.87, 36
30.88, 31
30.89, 34
30.9, 20
30.91, 19
30.92, 33
30.93, 36
30.94, 32
30.95, 32
30.96, 37
30.97, 21
30.98, 27
30.99, 32
31, 20
31.01, 39
31.02, 32
31.03, 35
31.04, 47
31.05, 26
31.06, 30
31.07, 21
31.08, 25
31.09, 31
31.1, 37
31.11, 34
31.12, 38
31.13, 42
31.14, 44
31.15, 43
31.16, 36
31.17, 39
31.18, 40
31.19, 41
31.2, 46
31.21, 42
31.22, 43
31.23, 58
31.24, 76
31.25, 54
31.26, 61
31.27, 72
31.28, 69
31.29, 87
31.3, 93
31.31, 89
31.32, 110
31.33, 114
31.34, 106
31.35, 112
31.36, 113
31.37, 120
31.38, 111
31.39, 92
31.4, 104
31.41, 105
31.42, 81
31.43, 88
31.44, 95
31.45, 81
31.46, 80
31.47, 60
31.48, 62
31.49, 66
31.5, 44
31.51, 48
31.52, 47
31.53, 39
31.54, 43
31.55, 37
31.56, 44
31.57, 43
31.58, 37
31.59, 42
31.6, 45
31.61, 31
31.62, 34
31.63, 41
31.64, 37
31.65, 37
31.66, 28
31.67, 40
31.68, 18
31.69, 23
31.7, 25
31.71, 35
31.72, 24
31.73, 36
31.74, 39
31.75, 42
31.76, 30
31.77, 22
31.78, 29
31.79, 29
31.8, 30
31.81, 22
31.82, 32
31.83, 25
31.84, 22
31.85, 43
31.86, 32
31.87, 34
31.88, 24
31.89, 30
31.9, 32
31.91, 35
31.92, 34
31.93, 34
31.94, 26
31.95, 40
31.96, 43
31.97, 45
31.98, 40
31.99, 50
32, 39
32.01, 36
32.02, 41
32.03, 37
32.04, 49
32.05, 50
32.06, 42
32.07, 57
32.08, 53
32.09, 61
32.1, 57
32.11, 67
32.12, 64
32.13, 75
32.14, 76
32.15, 86
32.16, 83
32.17, 75
32.18, 97
32.19, 102
32.2, 108
32.21, 95
32.22, 96
32.23, 88
32.24, 93
32.25, 89
32.26, 84
32.27, 90
32.28, 73
32.29, 72
32.3, 66
32.31, 63
32.32, 57
32.33, 50
32.34, 60
32.35, 38
32.36, 51
32.37, 43
32.38, 50
32.39, 32
32.4, 45
32.41, 27
32.42, 35
32.43, 40
32.44, 27
32.45, 33
32.46, 43
32.47, 27
32.48, 38
32.49, 22
32.5, 42
32.51, 26
32.52, 28
32.53, 36
32.54, 32
32.55, 23
32.56, 29
32.57, 24
32.58, 20
32.59, 29
32.6, 32
32.61, 21
32.62, 28
32.63, 32
32.64, 27
32.65, 34
32.66, 15
32.67, 32
32.68, 25
32.69, 20
32.7, 23
32.71, 19
32.72, 34
32.73, 23
32.74, 17
32.75, 20
32.76, 27
32.77, 28
32.78, 24
32.79, 32
32.8, 27
32.81, 25
32.82, 24
32.83, 23
32.84, 27
32.85, 14
32.86, 25
32.87, 29
32.88, 22
32.89, 27
32.9, 19
32.91, 23
32.92, 18
32.93, 21
32.94, 30
32.95, 23
32.96, 15
32.97, 37
32.98, 24
32.99, 19
33, 31
33.01, 33
33.02, 25
33.03, 18
33.04, 25
33.05, 24
33.06, 31
33.07, 26
33.08, 26
33.09, 21
33.1, 24
33.11, 25
33.12, 34
33.13, 31
33.14, 26
33.15, 17
33.16, 27
33.17, 27
33.18, 30
33.19, 26
33.2, 30
33.21, 24
33.22, 20
33.23, 21
33.24, 35
33.25, 20
33.26, 26
33.27, 27
33.28, 30
33.29, 25
33.3, 24
33.31, 25
33.32, 17
33.33, 28
33.34, 21
33.35, 22
33.36, 21
33.37, 18
33.38, 22
33.39, 25
33.4, 21
33.41, 24
33.42, 22
33.43, 15
33.44, 17
33.45, 28
33.46, 19
33.47, 19
33.48, 20
33.49, 29
33.5, 22
33.51, 25
33.52, 27
33.53, 24
33.54, 25
33.55, 23
33.56, 28
33.57, 14
33.58, 21
33.59, 31
33.6, 23
33.61, 16
33.62, 32
33.63, 27
33.64, 28
33.65, 16
33.66, 19
33.67, 25
33.68, 25
33.69, 21
33.7, 30
33.71, 21
33.72, 24
33.73, 23
33.74, 20
33.75, 30
33.76, 32
33.77, 24
33.78, 27
33.79, 22
33.8, 21
33.81, 29
33.82, 17
33.83, 35
33.84, 22
33.85, 28
33.86, 18
33.87, 23
33.88, 27
33.89, 20
33.9, 16
33.91, 24
33.92, 19
33.93, 23
33.94, 28
33.95, 17
33.96, 33
33.97, 19
33.98, 26
33.99, 20
34, 32
34.01, 19
34.02, 26
34.03, 23
34.04, 18
34.05, 22
34.06, 24
34.07, 21
34.08, 31
34.09, 27
34.1, 31
34.11, 28
34.12, 25
34.13, 21
34.14, 29
34.15, 23
34.16, 24
34.17, 25
34.18, 23
34.19, 28
34.2, 30
34.21, 31
34.22, 24
34.23, 30
34.24, 27
34.25, 24
34.26, 37
34.27, 23
34.28, 21
34.29, 15
34.3, 21
34.31, 32
34.32, 15
34.33, 28
34.34, 27
34.35, 34
34.36, 38
34.37, 33
34.38, 29
34.39, 34
34.4, 34
34.41, 30
34.42, 34
34.43, 48
34.44, 36
34.45, 60
34.46, 40
34.47, 44
34.48, 53
34.49, 45
34.5, 55
34.51, 59
34.52, 61
34.53, 67
34.54, 51
34.55, 53
34.56, 53
34.57, 54
34.58, 50
34.59, 56
34.6, 48
34.61, 57
34.62, 44
34.63, 50
34.64, 50
34.65, 35
34.66, 50
34.67, 43
34.68, 42
34.69, 44
34.7, 46
34.71, 48
34.72, 52
34.73, 61
34.74, 38
34.75, 46
34.76, 49
34.77, 48
34.78, 56
34.79, 56
34.8, 45
34.81, 48
34.82, 49
34.83, 49
34.84, 61
34.85, 65
34.86, 61
34.87, 48
34.88, 75
34.89, 89
34.9, 83
34.91, 85
34.92, 70
34.93, 84
34.94, 81
34.95, 82
34.96, 89
34.97, 69
34.98, 91
34.99, 89
35, 93
35.01, 100
35.02, 82
35.03, 87
35.04, 77
35.05, 92
35.06, 71
35.07, 84
35.08, 88
35.09, 81
35.1, 80
35.11, 73
35.12, 66
35.13, 65
35.14, 63
35.15, 53
35.16, 62
35.17, 59
35.18, 51
35.19, 48
35.2, 38
35.21, 35
35.22, 34
35.23, 48
35.24, 36
35.25, 40
35.26, 41
35.27, 28
35.28, 31
35.29, 35
35.3, 39
35.31, 34
35.32, 36
35.33, 38
35.34, 16
35.35, 36
35.36, 23
35.37, 28
35.38, 38
35.39, 35
35.4, 30
35.41, 27
35.42, 22
35.43, 24
35.44, 28
35.45, 29
35.46, 30
35.47, 27
35.48, 20
35.49, 28
35.5, 28
35.51, 25
35.52, 30
35.53, 27
35.54, 25
35.55, 33
35.56, 26
35.57, 33
35.58, 28
35.59, 24
35.6, 20
35.61, 30
35.62, 33
35.63, 24
35.64, 18
35.65, 29
35.66, 29
35.67, 34
35.68, 29
35.69, 16
35.7, 26
35.71, 23
35.72, 28
35.73, 33
35.74, 29
35.75, 37
35.76, 18
35.77, 20
35.78, 37
35.79, 30
35.8, 28
35.81, 45
35.82, 21
35.83, 29
35.84, 30
35.85, 30
35.86, 40
35.87, 37
35.88, 44
35.89, 29
35.9, 39
35.91, 28
35.92, 42
35.93, 39
35.94, 41
35.95, 49
35.96, 58
35.97, 41
35.98, 41
35.99, 38
36, 40
36.01, 37
36.02, 38
36.03, 43
36.04, 42
36.05, 39
36.06, 30
36.07, 38
36.08, 32
36.09, 35
36.1, 33
36.11, 44
36.12, 32
36.13, 37
36.14, 39
36.15, 60
36.16, 49
36.17, 50
36.18, 58
36.19, 77
36.2, 62
36.21, 74
36.22, 80
36.23, 91
36.24, 83
36.25, 83
36.26, 73
36.27, 57
36.28, 60
36.29, 58
36.3, 65
36.31, 44
36.32, 66
36.33, 61
36.34, 58
36.35, 59
36.36, 41
36.37, 52
36.38, 47
36.39, 32
36.4, 44
36.41, 45
36.42, 40
36.43, 32
36.44, 34
36.45, 40
36.46, 36
36.47, 31
36.48, 40
36.49, 32
36.5, 39
36.51, 32
36.52, 39
36.53, 28
36.54, 33
36.55, 39
36.56, 31
36.57, 24
36.58, 25
36.59, 36
36.6, 31
36.61, 30
36.62, 31
36.63, 24
36.64, 34
36.65, 35
36.66, 21
36.67, 32
36.68, 29
36.69, 27
36.7, 34
36.71, 33
36.72, 19
36.73, 22
36.74, 33
36.75, 38
36.76, 31
36.77, 38
36.78, 26
36.79, 22
36.8, 23
36.81, 34
36.82, 23
36.83, 26
36.84, 26
36.85, 25
36.86, 22
36.87, 33
36.88, 36
36.89, 26
36.9, 23
36.91, 30
36.92, 27
36.93, 28
36.94, 23
36.95, 29
36.96, 16
36.97, 20
36.98, 29
36.99, 25
37, 20
37.01, 22
37.02, 26
37.03, 23
37.04, 32
37.05, 30
37.06, 30
37.07, 22
37.08, 21
37.09, 23
37.1, 28
37.11, 35
37.12, 25
37.13, 25
37.14, 18
37.15, 22
37.16, 24
37.17, 23
37.18, 26
37.19, 26
37.2, 25
37.21, 23
37.22, 34
37.23, 27
37.24, 31
37.25, 22
37.26, 26
37.27, 26
37.28, 28
37.29, 28
37.3, 28
37.31, 38
37.32, 28
37.33, 29
37.34, 24
37.35, 30
37.36, 45
37.37, 31
37.38, 31
37.39, 47
37.4, 36
37.41, 38
37.42, 30
37.43, 34
37.44, 40
37.45, 41
37.46, 41
37.47, 50
37.48, 44
37.49, 41
37.5, 52
37.51, 46
37.52, 53
37.53, 41
37.54, 39
37.55, 46
37.56, 46
37.57, 36
37.58, 39
37.59, 47
37.6, 44
37.61, 42
37.62, 38
37.63, 45
37.64, 45
37.65, 37
37.66, 41
37.67, 37
37.68, 54
37.69, 35
37.7, 46
37.71, 43
37.72, 43
37.73, 51
37.74, 62
37.75, 45
37.76, 63
37.77, 55
37.78, 47
37.79, 55
37.8, 52
37.81, 46
37.82, 37
37.83, 51
37.84, 42
37.85, 49
37.86, 47
37.87, 49
37.88, 37
37.89, 46
37.9, 39
37.91, 27
37.92, 38
37.93, 34
37.94, 33
37.95, 24
37.96, 22
37.97, 28
37.98, 30
37.99, 30
38, 26
38.01, 20
38.02, 28
38.03, 37
38.04, 23
38.05, 32
38.06, 23
38.07, 12
38.08, 23
38.09, 29
38.1, 28
38.11, 20
38.12, 20
38.13, 36
38.14, 31
38.15, 28
38.16, 23
38.17, 19
38.18, 25
38.19, 33
38.2, 23
38.21, 24
38.22, 19
38.23, 23
38.24, 23
38.25, 26
38.26, 18
38.27, 24
38.28, 21
38.29, 26
38.3, 24
38.31, 19
38.32, 32
38.33, 34
38.34, 23
38.35, 22
38.36, 24
38.37, 36
38.38, 17
38.39, 27
38.4, 15
38.41, 16
38.42, 32
38.43, 17
38.44, 15
38.45, 17
38.46, 21
38.47, 22
38.48, 28
38.49, 27
38.5, 23
38.51, 23
38.52, 19
38.53, 18
38.54, 27
38.55, 15
38.56, 20
38.57, 21
38.58, 21
38.59, 20
38.6, 16
38.61, 23
38.62, 20
38.63, 20
38.64, 19
38.65, 21
38.66, 17
38.67, 23
38.68, 21
38.69, 16
38.7, 22
38.71, 18
38.72, 19
38.73, 23
38.74, 20
38.75, 27
38.76, 15
38.77, 16
38.78, 21
38.79, 24
38.8, 23
38.81, 13
38.82, 18
38.83, 21
38.84, 20
38.85, 21
38.86, 20
38.87, 27
38.88, 18
38.89, 23
38.9, 24
38.91, 25
38.92, 26
38.93, 11
38.94, 21
38.95, 12
38.96, 21
38.97, 17
38.98, 23
38.99, 22
39, 18
39.01, 17
39.02, 22
39.03, 38
39.04, 19
39.05, 21
39.06, 25
39.07, 21
39.08, 26
39.09, 20
39.1, 30
39.11, 28
39.12, 29
39.13, 30
39.14, 27
39.15, 20
39.16, 29
39.17, 24
39.18, 24
39.19, 27
39.2, 19
39.21, 29
39.22, 18
39.23, 16
39.24, 16
39.25, 22
39.26, 14
39.27, 16
39.28, 21
39.29, 17
39.3, 18
39.31, 19
39.32, 12
39.33, 18
39.34, 17
39.35, 19
39.36, 20
39.37, 25
39.38, 26
39.39, 19
39.4, 20
39.41, 25
39.42, 26
39.43, 13
39.44, 21
39.45, 27
39.46, 16
39.47, 23
39.48, 19
39.49, 25
39.5, 13
39.51, 21
39.52, 19
39.53, 18
39.54, 14
39.55, 27
39.56, 19
39.57, 23
39.58, 27
39.59, 22
39.6, 20
39.61, 21
39.62, 23
39.63, 19
39.64, 29
39.65, 22
39.66, 21
39.67, 20
39.68, 26
39.69, 16
39.7, 21
39.71, 23
39.72, 22
39.73, 20
39.74, 22
39.75, 15
39.76, 24
39.77, 26
39.78, 17
39.79, 25
39.8, 23
39.81, 26
39.82, 24
39.83, 12
39.84, 21
39.85, 33
39.86, 20
39.87, 26
39.88, 20
39.89, 31
39.9, 25
39.91, 22
39.92, 27
39.93, 37
39.94, 31
39.95, 35
39.96, 32
39.97, 28
39.98, 28
39.99, 32
40, 29
40.01, 32
40.02, 33
40.03, 29
40.04, 28
40.05, 30
40.06, 24
40.07, 22
40.08, 33
40.09, 27
40.1, 28
40.11, 27
40.12, 17
40.13, 26
40.14, 37
40.15, 19
40.16, 24
40.17, 26
40.18, 31
40.19, 35
40.2, 22
40.21, 29
40.22, 24
40.23, 25
40.24, 28
40.25, 29
40.26, 26
40.27, 19
40.28, 24
40.29, 34
40.3, 23
40.31, 26
40.32, 26
40.33, 24
40.34, 18
40.35, 32
40.36, 23
40.37, 31
40.38, 24
40.39, 26
40.4, 21
40.41, 27
40.42, 23
40.43, 19
40.44, 25
40.45, 28
40.46, 18
40.47, 24
40.48, 24
40.49, 24
40.5, 21
40.51, 28
40.52, 29
40.53, 27
40.54, 17
40.55, 24
40.56, 17
40.57, 15
40.58, 21
40.59, 22
40.6, 20
40.61, 22
40.62, 25
40.63, 29
40.64, 16
40.65, 28
40.66, 18
40.67, 27
40.68, 26
40.69, 30
40.7, 38
40.71, 27
40.72, 29
40.73, 30
40.74, 30
40.75, 24
40.76, 28
40.77, 21
40.78, 28
40.79, 31
40.8, 24
40.81, 29
40.82, 34
40.83, 30
40.84, 30
40.85, 30
40.86, 26
40.87, 33
40.88, 35
40.89, 40
40.9, 28
40.91, 27
40.92, 28
40.93, 36
40.94, 31
40.95, 28
40.96, 41
40.97, 26
40.98, 35
40.99, 28
41, 35
41.01, 31
41.02, 23
41.03, 22
41.04, 27
41.05, 34
41.06, 37
41.07, 34
41.08, 25
41.09, 28
41.1, 27
41.11, 37
41.12, 42
41.13, 43
41.14, 34
41.15, 32
41.16, 25
41.17, 21
41.18, 30
41.19, 25
41.2, 30
41.21, 31
41.22, 22
41.23, 27
41.24, 33
41.25, 25
41.26, 27
41.27, 26
41.28, 30
41.29, 29
41.3, 38
41.31, 28
41.32, 23
41.33, 36
41.34, 29
41.35, 23
41.36, 23
41.37, 26
41.38, 40
41.39, 19
41.4, 22
41.41, 26
41.42, 33
41.43, 21
41.44, 22
41.45, 35
41.46, 19
41.47, 24
41.48, 22
41.49, 24
41.5, 27
41.51, 29
41.52, 32
41.53, 17
41.54, 29
41.55, 25
41.56, 25
41.57, 29
41.58, 34
41.59, 27
41.6, 24
41.61, 26
41.62, 21
41.63, 23
41.64, 28
41.65, 23
41.66, 26
41.67, 17
41.68, 17
41.69, 25
41.7, 23
41.71, 21
41.72, 27
41.73, 23
41.74, 26
41.75, 26
41.76, 22
41.77, 26
41.78, 32
41.79, 22
41.8, 20
41.81, 32
41.82, 19
41.83, 17
41.84, 17
41.85, 24
41.86, 39
41.87, 30
41.88, 34
41.89, 24
41.9, 19
41.91, 30
41.92, 20
41.93, 30
41.94, 22
41.95, 34
41.96, 30
41.97, 26
41.98, 35
41.99, 24
42, 33
42.01, 32
42.02, 36
42.03, 39
42.04, 35
42.05, 44
42.06, 49
42.07, 28
42.08, 39
42.09, 35
42.1, 43
42.11, 32
42.12, 43
42.13, 37
42.14, 42
42.15, 28
42.16, 42
42.17, 33
42.18, 39
42.19, 37
42.2, 29
42.21, 37
42.22, 26
42.23, 31
42.24, 31
42.25, 40
42.26, 40
42.27, 42
42.28, 41
42.29, 44
42.3, 31
42.31, 52
42.32, 41
42.33, 49
42.34, 36
42.35, 36
42.36, 37
42.37, 47
42.38, 53
42.39, 51
42.4, 50
42.41, 55
42.42, 38
42.43, 54
42.44, 46
42.45, 56
42.46, 48
42.47, 45
42.48, 47
42.49, 50
42.5, 40
42.51, 45
42.52, 38
42.53, 47
42.54, 53
42.55, 44
42.56, 48
42.57, 52
42.58, 46
42.59, 42
42.6, 53
42.61, 41
42.62, 30
42.63, 33
42.64, 37
42.65, 23
42.66, 32
42.67, 40
42.68, 29
42.69, 36
42.7, 28
42.71, 34
42.72, 26
42.73, 26
42.74, 23
42.75, 19
42.76, 22
42.77, 24
42.78, 29
42.79, 26
42.8, 25
42.81, 24
42.82, 32
42.83, 22
42.84, 23
42.85, 24
42.86, 28
42.87, 34
42.88, 23
42.89, 26
42.9, 14
42.91, 17
42.92, 26
42.93, 22
42.94, 25
42.95, 25
42.96, 15
42.97, 18
42.98, 17
42.99, 27
43, 22
43.01, 29
43.02, 27
43.03, 25
43.04, 28
43.05, 25
43.06, 21
43.07, 20
43.08, 9
43.09, 21
43.1, 22
43.11, 24
43.12, 16
43.13, 21
43.14, 34
43.15, 22
43.16, 22
43.17, 24
43.18, 31
43.19, 25
43.2, 20
43.21, 31
43.22, 18
43.23, 19
43.24, 23
43.25, 16
43.26, 30
43.27, 26
43.28, 22
43.29, 26
43.3, 28
43.31, 22
43.32, 19
43.33, 18
43.34, 20
43.35, 35
43.36, 30
43.37, 23
43.38, 27
43.39, 23
43.4, 21
43.41, 22
43.42, 17
43.43, 18
43.44, 21
43.45, 14
43.46, 18
43.47, 20
43.48, 18
43.49, 27
43.5, 17
43.51, 24
43.52, 32
43.53, 29
43.54, 21
43.55, 24
43.56, 20
43.57, 27
43.58, 27
43.59, 21
43.6, 24
43.61, 27
43.62, 25
43.63, 18
43.64, 24
43.65, 19
43.66, 31
43.67, 18
43.68, 19
43.69, 15
43.7, 18
43.71, 30
43.72, 20
43.73, 33
43.74, 27
43.75, 28
43.76, 19
43.77, 21
43.78, 25
43.79, 25
43.8, 24
43.81, 31
43.82, 19
43.83, 19
43.84, 28
43.85, 18
43.86, 30
43.87, 22
43.88, 29
43.89, 23
43.9, 24
43.91, 33
43.92, 19
43.93, 35
43.94, 28
43.95, 27
43.96, 21
43.97, 22
43.98, 30
43.99, 20
44, 28
44.01, 27
44.02, 21
44.03, 31
44.04, 26
44.05, 25
44.06, 21
44.07, 25
44.08, 27
44.09, 22
44.1, 33
44.11, 30
44.12, 27
44.13, 27
44.14, 20
44.15, 26
44.16, 22
44.17, 25
44.18, 19
44.19, 31
44.2, 36
44.21, 23
44.22, 28
44.23, 35
44.24, 26
44.25, 39
44.26, 20
44.27, 29
44.28, 16
44.29, 29
44.3, 27
44.31, 23
44.32, 33
44.33, 25
44.34, 27
44.35, 20
44.36, 15
44.37, 19
44.38, 21
44.39, 28
44.4, 28
44.41, 25
44.42, 24
44.43, 28
44.44, 26
44.45, 31
44.46, 23
44.47, 17
44.48, 21
44.49, 24
44.5, 25
44.51, 26
44.52, 26
44.53, 18
44.54, 24
44.55, 19
44.56, 27
44.57, 34
44.58, 36
44.59, 25
44.6, 26
44.61, 15
44.62, 21
44.63, 22
44.64, 25
44.65, 23
44.66, 20
44.67, 27
44.68, 19
44.69, 20
44.7, 29
44.71, 22
44.72, 27
44.73, 18
44.74, 21
44.75, 29
44.76, 25
44.77, 22
44.78, 18
44.79, 26
44.8, 19
44.81, 24
44.82, 24
44.83, 31
44.84, 25
44.85, 40
44.86, 20
44.87, 15
44.88, 24
44.89, 29
44.9, 19
44.91, 23
44.92, 37
44.93, 30
44.94, 32
44.95, 27
44.96, 33
44.97, 23
44.98, 27
44.99, 20
45, 25
45.01, 20
45.02, 26
45.03, 18
45.04, 23
45.05, 24
45.06, 25
45.07, 24
45.08, 30
45.09, 23
45.1, 19
45.11, 22
45.12, 20
45.13, 24
45.14, 34
45.15, 30
45.16, 21
45.17, 29
45.18, 29
45.19, 31
45.2, 29
45.21, 29
45.22, 39
45.23, 18
45.24, 28
45.25, 26
45.26, 32
45.27, 28
45.28, 26
45.29, 30
45.3, 33
45.31, 27
45.32, 31
45.33, 26
45.34, 25
45.35, 18
45.36, 32
45.37, 27
45.38, 25
45.39, 35
45.4, 32
45.41, 26
45.42, 33
45.43, 35
45.44, 22
45.45, 48
45.46, 45
45.47, 36
45.48, 34
45.49, 41
45.5, 37
45.51, 40
45.52, 38
45.53, 46
45.54, 49
45.55, 42
45.56, 61
45.57, 50
45.58, 49
45.59, 64
45.6, 58
45.61, 75
45.62, 80
45.63, 101
45.64, 104
45.65, 125
45.66, 160
45.67, 168
45.68, 201
45.69, 239
45.7, 279
45.71, 307
45.72, 325
45.73, 406
45.74, 350
45.75, 341
45.76, 317
45.77, 256
45.78, 231
45.79, 229
45.8, 198
45.81, 195
45.82, 231
45.83, 238
45.84, 222
45.85, 209
45.86, 225
45.87, 196
45.88, 167
45.89, 147
45.9, 97
45.91, 88
45.92, 68
45.93, 77
45.94, 69
45.95, 72
45.96, 49
45.97, 46
45.98, 45
45.99, 35
46, 44
46.01, 39
46.02, 28
46.03, 50
46.04, 28
46.05, 55
46.06, 35
46.07, 39
46.08, 47
46.09, 45
46.1, 38
46.11, 41
46.12, 44
46.13, 32
46.14, 42
46.15, 50
46.16, 38
46.17, 36
46.18, 35
46.19, 34
46.2, 37
46.21, 35
46.22, 44
46.23, 37
46.24, 39
46.25, 39
46.26, 39
46.27, 39
46.28, 34
46.29, 40
46.3, 36
46.31, 31
46.32, 25
46.33, 22
46.34, 38
46.35, 30
46.36, 38
46.37, 35
46.38, 21
46.39, 22
46.4, 30
46.41, 25
46.42, 31
46.43, 25
46.44, 19
46.45, 27
46.46, 24
46.47, 24
46.48, 31
46.49, 26
46.5, 25
46.51, 40
46.52, 25
46.53, 26
46.54, 25
46.55, 25
46.56, 32
46.57, 23
46.58, 37
46.59, 29
46.6, 29
46.61, 26
46.62, 28
46.63, 32
46.64, 26
46.65, 31
46.66, 36
46.67, 29
46.68, 24
46.69, 30
46.7, 35
46.71, 23
46.72, 34
46.73, 38
46.74, 35
46.75, 33
46.76, 22
46.77, 33
46.78, 29
46.79, 25
46.8, 25
46.81, 34
46.82, 28
46.83, 24
46.84, 33
46.85, 23
46.86, 26
46.87, 18
46.88, 27
46.89, 29
46.9, 24
46.91, 25
46.92, 23
46.93, 19
46.94, 22
46.95, 21
46.96, 23
46.97, 21
46.98, 27
46.99, 23
47, 30
47.01, 23
47.02, 16
47.03, 19
47.04, 15
47.05, 22
47.06, 22
47.07, 33
47.08, 22
47.09, 19
47.1, 29
47.11, 20
47.12, 20
47.13, 19
47.14, 25
47.15, 22
47.16, 21
47.17, 17
47.18, 23
47.19, 26
47.2, 26
47.21, 24
47.22, 27
47.23, 18
47.24, 22
47.25, 26
47.26, 16
47.27, 27
47.28, 26
47.29, 23
47.3, 24
47.31, 17
47.32, 26
47.33, 32
47.34, 27
47.35, 20
47.36, 26
47.37, 24
47.38, 22
47.39, 28
47.4, 24
47.41, 25
47.42, 23
47.43, 18
47.44, 20
47.45, 26
47.46, 27
47.47, 17
47.48, 22
47.49, 24
47.5, 21
47.51, 13
47.52, 13
47.53, 25
47.54, 27
47.55, 28
47.56, 21
47.57, 19
47.58, 17
47.59, 19
47.6, 18
47.61, 21
47.62, 17
47.63, 26
47.64, 27
47.65, 25
47.66, 14
47.67, 16
47.68, 29
47.69, 19
47.7, 21
47.71, 17
47.72, 17
47.73, 16
47.74, 17
47.75, 31
47.76, 20
47.77, 29
47.78, 21
47.79, 12
47.8, 22
47.81, 30
47.82, 20
47.83, 27
47.84, 14
47.85, 19
47.86, 26
47.87, 21
47.88, 24
47.89, 14
47.9, 22
47.91, 26
47.92, 28
47.93, 17
47.94, 23
47.95, 15
47.96, 22
47.97, 25
47.98, 26
47.99, 20
48, 32
48.01, 27
48.02, 22
48.03, 17
48.04, 19
48.05, 18
48.06, 21
48.07, 24
48.08, 25
48.09, 23
48.1, 23
48.11, 23
48.12, 24
48.13, 16
48.14, 33
48.15, 19
48.16, 20
48.17, 22
48.18, 29
48.19, 25
48.2, 23
48.21, 23
48.22, 19
48.23, 26
48.24, 23
48.25, 23
48.26, 29
48.27, 23
48.28, 20
48.29, 27
48.3, 17
48.31, 21
48.32, 25
48.33, 21
48.34, 24
48.35, 18
48.36, 24
48.37, 24
48.38, 29
48.39, 20
48.4, 20
48.41, 31
48.42, 21
48.43, 26
48.44, 21
48.45, 30
48.46, 21
48.47, 30
48.48, 24
48.49, 19
48.5, 24
48.51, 21
48.52, 33
48.53, 17
48.54, 25
48.55, 21
48.56, 11
48.57, 23
48.58, 29
48.59, 27
48.6, 22
48.61, 25
48.62, 27
48.63, 22
48.64, 27
48.65, 19
48.66, 25
48.67, 21
48.68, 15
48.69, 27
48.7, 29
48.71, 19
48.72, 17
48.73, 24
48.74, 26
48.75, 26
48.76, 19
48.77, 23
48.78, 23
48.79, 19
48.8, 20
48.81, 24
48.82, 30
48.83, 30
48.84, 26
48.85, 39
48.86, 23
48.87, 23
48.88, 20
48.89, 28
48.9, 33
48.91, 19
48.92, 20
48.93, 19
48.94, 21
48.95, 19
48.96, 21
48.97, 20
48.98, 28
48.99, 25
49, 24
49.01, 26
49.02, 18
49.03, 23
49.04, 23
49.05, 23
49.06, 24
49.07, 20
49.08, 17
49.09, 18
49.1, 24
49.11, 20
49.12, 32
49.13, 29
49.14, 23
49.15, 24
49.16, 23
49.17, 21
49.18, 24
49.19, 20
49.2, 16
49.21, 21
49.22, 26
49.23, 20
49.24, 21
49.25, 24
49.26, 31
49.27, 15
49.28, 17
49.29, 28
49.3, 23
49.31, 28
49.32, 18
49.33, 24
49.34, 24
49.35, 27
49.36, 27
49.37, 20
49.38, 24
49.39, 23
49.4, 29
49.41, 25
49.42, 19
49.43, 26
49.44, 27
49.45, 20
49.46, 23
49.47, 22
49.48, 18
49.49, 18
49.5, 27
49.51, 21
49.52, 32
49.53, 18
49.54, 20
49.55, 22
49.56, 29
49.57, 26
49.58, 28
49.59, 20
49.6, 27
49.61, 20
49.62, 26
49.63, 25
49.64, 26
49.65, 12
49.66, 24
49.67, 22
49.68, 28
49.69, 15
49.7, 34
49.71, 23
49.72, 13
49.73, 24
49.74, 19
49.75, 21
49.76, 12
49.77, 16
49.78, 21
49.79, 17
49.8, 23
49.81, 19
49.82, 13
49.83, 22
49.84, 23
49.85, 28
49.86, 22
49.87, 23
49.88, 22
49.89, 21
49.9, 20
49.91, 25
49.92, 21
49.93, 20
49.94, 23
49.95, 23
49.96, 24
49.97, 31
49.98, 16
49.99, 14
50, 32
50.01, 33
50.02, 27
50.03, 20
50.04, 14
50.05, 23
50.06, 21
50.07, 24
50.08, 21
50.09, 26
50.1, 30
50.11, 17
50.12, 22
50.13, 20
50.14, 28
50.15, 25
50.16, 23
50.17, 23
50.18, 23
50.19, 21
50.2, 33
50.21, 24
50.22, 27
50.23, 24
50.24, 23
50.25, 32
50.26, 18
50.27, 22
50.28, 26
50.29, 20
50.3, 21
50.31, 24
50.32, 27
50.33, 22
50.34, 14
50.35, 20
50.36, 25
50.37, 22
50.38, 24
50.39, 16
50.4, 19
50.41, 16
50.42, 26
50.43, 21
50.44, 21
50.45, 25
50.46, 14
50.47, 19
50.48, 14
50.49, 16
50.5, 19
50.51, 12
50.52, 22
50.53, 22
50.54, 21
50.55, 21
50.56, 23
50.57, 24
50.58, 22
50.59, 22
50.6, 26
50.61, 18
50.62, 25
50.63, 26
50.64, 23
50.65, 24
50.66, 16
50.67, 23
50.68, 11
50.69, 35
50.7, 17
50.71, 26
50.72, 20
50.73, 26
50.74, 21
50.75, 20
50.76, 19
50.77, 25
50.78, 23
50.79, 23
50.8, 24
50.81, 16
50.82, 20
50.83, 21
50.84, 26
50.85, 19
50.86, 22
50.87, 19
50.88, 21
50.89, 18
50.9, 23
50.91, 19
50.92, 13
50.93, 23
50.94, 22
50.95, 20
50.96, 21
50.97, 27
50.98, 27
50.99, 20
51, 22
51.01, 20
51.02, 28
51.03, 28
51.04, 23
51.05, 21
51.06, 25
51.07, 24
51.08, 23
51.09, 16
51.1, 43
51.11, 15
51.12, 18
51.13, 21
51.14, 19
51.15, 34
51.16, 18
51.17, 14
51.18, 15
51.19, 10
51.2, 19
51.21, 18
51.22, 25
51.23, 10
51.24, 19
51.25, 15
51.26, 19
51.27, 19
51.28, 15
51.29, 14
51.3, 22
51.31, 22
51.32, 23
51.33, 20
51.34, 17
51.35, 33
51.36, 21
51.37, 21
51.38, 24
51.39, 14
51.4, 22
51.41, 21
51.42, 19
51.43, 23
51.44, 14
51.45, 28
51.46, 20
51.47, 27
51.48, 14
51.49, 17
51.5, 17
51.51, 15
51.52, 23
51.53, 22
51.54, 23
51.55, 23
51.56, 25
51.57, 21
51.58, 16
51.59, 17
51.6, 21
51.61, 16
51.62, 9
51.63, 27
51.64, 13
51.65, 23
51.66, 22
51.67, 16
51.68, 15
51.69, 19
51.7, 22
51.71, 15
51.72, 19
51.73, 19
51.74, 20
51.75, 15
51.76, 24
51.77, 19
51.78, 19
51.79, 21
51.8, 24
51.81, 24
51.82, 18
51.83, 17
51.84, 25
51.85, 25
51.86, 13
51.87, 15
51.88, 25
51.89, 22
51.9, 27
51.91, 16
51.92, 25
51.93, 16
51.94, 19
51.95, 24
51.96, 20
51.97, 19
51.98, 20
51.99, 23
52, 17
52.01, 24
52.02, 21
52.03, 17
52.04, 22
52.05, 16
52.06, 18
52.07, 20
52.08, 20
52.09, 17
52.1, 21
52.11, 24
52.12, 28
52.13, 18
52.14, 18
52.15, 21
52.16, 30
52.17, 16
52.18, 24
52.19, 20
52.2, 22
52.21, 15
52.22, 21
52.23, 24
52.24, 23
52.25, 24
52.26, 15
52.27, 20
52.28, 24
52.29, 26
52.3, 23
52.31, 17
52.32, 18
52.33, 17
52.34, 15
52.35, 25
52.36, 23
52.37, 26
52.38, 18
52.39, 23
52.4, 23
52.41, 31
52.42, 24
52.43, 23
52.44, 29
52.45, 27
52.46, 21
52.47, 22
52.48, 30
52.49, 24
52.5, 14
52.51, 22
52.52, 21
52.53, 17
52.54, 24
52.55, 19
52.56, 27
52.57, 18
52.58, 23
52.59, 25
52.6, 23
52.61, 19
52.62, 23
52.63, 13
52.64, 29
52.65, 23
52.66, 25
52.67, 23
52.68, 23
52.69, 21
52.7, 23
52.71, 23
52.72, 27
52.73, 26
52.74, 22
52.75, 14
52.76, 24
52.77, 31
52.78, 26
52.79, 20
52.8, 30
52.81, 25
52.82, 19
52.83, 16
52.84, 19
52.85, 21
52.86, 27
52.87, 26
52.88, 26
52.89, 27
52.9, 24
52.91, 21
52.92, 29
52.93, 25
52.94, 30
52.95, 29
52.96, 21
52.97, 25
52.98, 46
52.99, 26
53, 20
53.01, 40
53.02, 30
53.03, 29
53.04, 26
53.05, 28
53.06, 28
53.07, 34
53.08, 24
53.09, 37
53.1, 33
53.11, 29
53.12, 25
53.13, 27
53.14, 26
53.15, 26
53.16, 30
53.17, 25
53.18, 35
53.19, 32
53.2, 21
53.21, 15
53.22, 25
53.23, 33
53.24, 26
53.25, 30
53.26, 23
53.27, 28
53.28, 21
53.29, 21
53.3, 25
53.31, 19
53.32, 29
53.33, 24
53.34, 19
53.35, 24
53.36, 22
53.37, 25
53.38, 20
53.39, 16
53.4, 32
53.41, 25
53.42, 28
53.43, 20
53.44, 19
53.45, 21
53.46, 17
53.47, 20
53.48, 19
53.49, 21
53.5, 20
53.51, 17
53.52, 21
53.53, 16
53.54, 27
53.55, 16
53.56, 22
53.57, 25
53.58, 26
53.59, 32
53.6, 20
53.61, 21
53.62, 22
53.63, 30
53.64, 23
53.65, 24
53.66, 22
53.67, 28
53.68, 30
53.69, 21
53.7, 29
53.71, 21
53.72, 29
53.73, 30
53.74, 29
53.75, 21
53.76, 18
53.77, 31
53.78, 36
53.79, 29
53.8, 22
53.81, 23
53.82, 27
53.83, 30
53.84, 26
53.85, 29
53.86, 24
53.87, 23
53.88, 29
53.89, 25
53.9, 29
53.91, 23
53.92, 21
53.93, 16
53.94, 27
53.95, 26
53.96, 26
53.97, 18
53.98, 23
53.99, 23
54, 26
54.01, 25
54.02, 31
54.03, 23
54.04, 15
54.05, 20
54.06, 23
54.07, 29
54.08, 24
54.09, 28
54.1, 19
54.11, 28
54.12, 27
54.13, 24
54.14, 20
54.15, 23
54.16, 20
54.17, 32
54.18, 13
54.19, 29
54.2, 25
54.21, 28
54.22, 19
54.23, 29
54.24, 21
54.25, 19
54.26, 28
54.27, 24
54.28, 23
54.29, 18
54.3, 27
54.31, 22
54.32, 29
54.33, 25
54.34, 29
54.35, 20
54.36, 16
54.37, 27
54.38, 31
54.39, 26
54.4, 29
54.41, 22
54.42, 24
54.43, 23
54.44, 25
54.45, 22
54.46, 27
54.47, 21
54.48, 27
54.49, 25
54.5, 23
54.51, 27
54.52, 15
54.53, 24
54.54, 21
54.55, 29
54.56, 17
54.57, 14
54.58, 20
54.59, 22
54.6, 22
54.61, 20
54.62, 26
54.63, 23
54.64, 25
54.65, 31
54.66, 20
54.67, 18
54.68, 22
54.69, 20
54.7, 20
54.71, 27
54.72, 25
54.73, 19
54.74, 20
54.75, 31
54.76, 24
54.77, 28
54.78, 25
54.79, 31
54.8, 30
54.81, 29
54.82, 24
54.83, 29
54.84, 22
54.85, 33
54.86, 28
54.87, 21
54.88, 24
54.89, 18
54.9, 24
54.91, 24
54.92, 21
54.93, 25
54.94, 28
54.95, 23
54.96, 22
54.97, 24
54.98, 15
54.99, 17
55, 22
55.01, 14
55.02, 27
55.03, 20
55.04, 25
55.05, 30
55.06, 23
55.07, 31
55.08, 25
55.09, 25
55.1, 18
55.11, 29
55.12, 33
55.13, 20
55.14, 34
55.15, 22
55.16, 27
55.17, 17
55.18, 37
55.19, 32
55.2, 17
55.21, 24
55.22, 26
55.23, 35
55.24, 23
55.25, 36
55.26, 30
55.27, 33
55.28, 34
55.29, 30
55.3, 40
55.31, 45
55.32, 31
55.33, 41
55.34, 21
55.35, 40
55.36, 34
55.37, 46
55.38, 27
55.39, 39
55.4, 56
55.41, 51
55.42, 39
55.43, 41
55.44, 47
55.45, 52
55.46, 38
55.47, 55
55.48, 26
55.49, 37
55.5, 37
55.51, 47
55.52, 46
55.53, 50
55.54, 41
55.55, 37
55.56, 37
55.57, 45
55.58, 47
55.59, 45
55.6, 36
55.61, 23
55.62, 43
55.63, 37
55.64, 45
55.65, 43
55.66, 26
55.67, 47
55.68, 45
55.69, 43
55.7, 27
55.71, 28
55.72, 40
55.73, 55
55.74, 46
55.75, 41
55.76, 41
55.77, 43
55.78, 41
55.79, 44
55.8, 39
55.81, 61
55.82, 37
55.83, 48
55.84, 59
55.85, 39
55.86, 49
55.87, 55
55.88, 44
55.89, 55
55.9, 64
55.91, 54
55.92, 67
55.93, 55
55.94, 68
55.95, 53
55.96, 69
55.97, 69
55.98, 57
55.99, 45
56, 71
56.01, 63
56.02, 63
56.03, 61
56.04, 59
56.05, 52
56.06, 62
56.07, 54
56.08, 54
56.09, 47
56.1, 49
56.11, 47
56.12, 62
56.13, 41
56.14, 48
56.15, 38
56.16, 46
56.17, 54
56.18, 34
56.19, 54
56.2, 50
56.21, 42
56.22, 37
56.23, 33
56.24, 47
56.25, 40
56.26, 33
56.27, 41
56.28, 36
56.29, 37
56.3, 24
56.31, 29
56.32, 29
56.33, 30
56.34, 34
56.35, 29
56.36, 28
56.37, 17
56.38, 36
56.39, 29
56.4, 21
56.41, 33
56.42, 24
56.43, 27
56.44, 27
56.45, 22
56.46, 26
56.47, 21
56.48, 33
56.49, 26
56.5, 37
56.51, 20
56.52, 27
56.53, 29
56.54, 26
56.55, 22
56.56, 29
56.57, 29
56.58, 21
56.59, 22
56.6, 27
56.61, 31
56.62, 15
56.63, 28
56.64, 25
56.65, 20
56.66, 31
56.67, 20
56.68, 24
56.69, 23
56.7, 23
56.71, 23
56.72, 23
56.73, 28
56.74, 28
56.75, 24
56.76, 29
56.77, 23
56.78, 18
56.79, 21
56.8, 25
56.81, 37
56.82, 27
56.83, 27
56.84, 25
56.85, 34
56.86, 26
56.87, 26
56.88, 21
56.89, 32
56.9, 21
56.91, 27
56.92, 30
56.93, 20
56.94, 22
56.95, 23
56.96, 22
56.97, 14
56.98, 25
56.99, 23
57, 18
57.01, 21
57.02, 20
57.03, 33
57.04, 22
57.05, 26
57.06, 36
57.07, 21
57.08, 22
57.09, 26
57.1, 22
57.11, 19
57.12, 32
57.13, 26
57.14, 28
57.15, 22
57.16, 25
57.17, 21
57.18, 21
57.19, 23
57.2, 29
57.21, 18
57.22, 16
57.23, 21
57.24, 29
57.25, 22
57.26, 24
57.27, 33
57.28, 28
57.29, 23
57.3, 19
57.31, 30
57.32, 40
57.33, 25
57.34, 31
57.35, 21
57.36, 24
57.37, 15
57.38, 34
57.39, 27
57.4, 24
57.41, 21
57.42, 22
57.43, 29
57.44, 26
57.45, 27
57.46, 22
57.47, 31
57.48, 26
57.49, 28
57.5, 18
57.51, 30
57.52, 22
57.53, 25
57.54, 23
57.55, 18
57.56, 18
57.57, 28
57.58, 24
57.59, 31
57.6, 23
57.61, 28
57.62, 27
57.63, 22
57.64, 24
57.65, 34
57.66, 19
57.67, 17
57.68, 29
57.69, 35
57.7, 31
57.71, 23
57.72, 24
57.73, 28
57.74, 29
57.75, 29
57.76, 21
57.77, 23
57.78, 19
57.79, 29
57.8, 19
57.81, 24
57.82, 21
57.83, 19
57.84, 24
57.85, 20
57.86, 32
57.87, 25
57.88, 22
57.89, 25
57.9, 18
57.91, 22
57.92, 31
57.93, 23
57.94, 27
57.95, 13
57.96, 26
57.97, 32
57.98, 18
57.99, 15
58, 30
58.01, 27
58.02, 26
58.03, 21
58.04, 21
58.05, 17
58.06, 28
58.07, 15
58.08, 26
58.09, 33
58.1, 29
58.11, 19
58.12, 21
58.13, 23
58.14, 16
58.15, 22
58.16, 15
58.17, 12
58.18, 18
58.19, 24
58.2, 24
58.21, 37
58.22, 15
58.23, 21
58.24, 18
58.25, 16
58.26, 24
58.27, 16
58.28, 16
58.29, 17
58.3, 18
58.31, 24
58.32, 15
58.33, 19
58.34, 25
58.35, 20
58.36, 17
58.37, 27
58.38, 16
58.39, 16
58.4, 15
58.41, 18
58.42, 21
58.43, 23
58.44, 19
58.45, 29
58.46, 22
58.47, 23
58.48, 14
58.49, 21
58.5, 20
58.51, 21
58.52, 27
58.53, 20
58.54, 21
58.55, 19
58.56, 25
58.57, 19
58.58, 22
58.59, 21
58.6, 28
58.61, 11
58.62, 24
58.63, 20
58.64, 22
58.65, 22
58.66, 26
58.67, 16
58.68, 22
58.69, 21
58.7, 23
58.71, 17
58.72, 18
58.73, 24
58.74, 14
58.75, 25
58.76, 24
58.77, 22
58.78, 18
58.79, 19
58.8, 17
58.81, 27
58.82, 19
58.83, 20
58.84, 19
58.85, 18
58.86, 27
58.87, 22
58.88, 25
58.89, 25
58.9, 21
58.91, 20
58.92, 22
58.93, 12
58.94, 15
58.95, 25
58.96, 26
58.97, 21
58.98, 17
58.99, 18
59, 18
59.01, 16
59.02, 24
59.03, 24
59.04, 20
59.05, 24
59.06, 18
59.07, 23
59.08, 26
59.09, 23
59.1, 20
59.11, 15
59.12, 16
59.13, 23
59.14, 27
59.15, 20
59.16, 20
59.17, 26
59.18, 21
59.19, 20
59.2, 24
59.21, 12
59.22, 25
59.23, 27
59.24, 27
59.25, 32
59.26, 20
59.27, 36
59.28, 28
59.29, 31
59.3, 30
59.31, 23
59.32, 19
59.33, 28
59.34, 28
59.35, 23
59.36, 28
59.37, 18
59.38, 22
59.39, 25
59.4, 24
59.41, 27
59.42, 25
59.43, 28
59.44, 20
59.45, 25
59.46, 24
59.47, 18
59.48, 28
59.49, 25
59.5, 28
59.51, 25
59.52, 32
59.53, 23
59.54, 26
59.55, 27
59.56, 28
59.57, 28
59.58, 21
59.59, 31
59.6, 27
59.61, 27
59.62, 27
59.63, 22
59.64, 19
59.65, 22
59.66, 22
59.67, 29
59.68, 29
59.69, 30
59.7, 26
59.71, 30
59.72, 21
59.73, 17
59.74, 15
59.75, 24
59.76, 19
59.77, 22
59.78, 27
59.79, 22
59.8, 18
59.81, 27
59.82, 19
59.83, 19
59.84, 14
59.85, 24
59.86, 30
59.87, 26
59.88, 26
59.89, 26
59.9, 26
59.91, 28
59.92, 17
59.93, 28
59.94, 13
59.95, 17
59.96, 25
59.97, 20
59.98, 20
59.99, 23
60, 20
60.01, 16
60.02, 28
60.03, 23
60.04, 16
60.05, 19
60.06, 24
60.07, 20
60.08, 22
60.09, 17
60.1, 25
60.11, 27
60.12, 23
60.13, 25
60.14, 19
60.15, 17
60.16, 25
60.17, 27
60.18, 25
60.19, 23
60.2, 26
60.21, 26
60.22, 19
60.23, 22
60.24, 20
60.25, 29
60.26, 12
60.27, 33
60.28, 16
60.29, 20
60.3, 18
60.31, 23
60.32, 24
60.33, 24
60.34, 22
60.35, 26
60.36, 28
60.37, 16
60.38, 24
60.39, 21
60.4, 24
60.41, 18
60.42, 26
60.43, 20
60.44, 23
60.45, 23
60.46, 20
60.47, 26
60.48, 20
60.49, 24
60.5, 27
60.51, 20
60.52, 17
60.53, 16
60.54, 23
60.55, 17
60.56, 19
60.57, 20
60.58, 26
60.59, 35
60.6, 18
60.61, 17
60.62, 24
60.63, 27
60.64, 32
60.65, 26
60.66, 16
60.67, 31
60.68, 25
60.69, 25
60.7, 22
60.71, 29
60.72, 30
60.73, 31
60.74, 30
60.75, 28
60.76, 30
60.77, 20
60.78, 26
60.79, 29
60.8, 28
60.81, 27
60.82, 21
60.83, 26
60.84, 31
60.85, 31
60.86, 33
60.87, 24
60.88, 23
60.89, 40
60.9, 27
60.91, 37
60.92, 31
60.93, 42
60.94, 46
60.95, 31
60.96, 39
60.97, 34
60.98, 34
60.99, 41
61, 37
61.01, 36
61.02, 40
61.03, 42
61.04, 27
61.05, 34
61.06, 46
61.07, 34
61.08, 40
61.09, 36
61.1, 46
61.11, 39
61.12, 29
61.13, 32
61.14, 30
61.15, 35
61.16, 21
61.17, 39
61.18, 43
61.19, 24
61.2, 45
61.21, 35
61.22, 33
61.23, 32
61.24, 30
61.25, 31
61.26, 43
61.27, 35
61.28, 36
61.29, 26
61.3, 44
61.31, 37
61.32, 42
61.33, 42
61.34, 44
61.35, 34
61.36, 46
61.37, 36
61.38, 38
61.39, 39
61.4, 37
61.41, 35
61.42, 41
61.43, 33
61.44, 28
61.45, 41
61.46, 39
61.47, 38
61.48, 33
61.49, 39
61.5, 34
61.51, 43
61.52, 50
61.53, 40
61.54, 50
61.55, 40
61.56, 47
61.57, 43
61.58, 35
61.59, 63
61.6, 43
61.61, 47
61.62, 55
61.63, 49
61.64, 43
61.65, 43
61.66, 43
61.67, 43
61.68, 43
61.69, 42
61.7, 51
61.71, 47
61.72, 52
61.73, 36
61.74, 20
61.75, 31
61.76, 30
61.77, 34
61.78, 37
61.79, 27
61.8, 24
61.81, 36
61.82, 37
61.83, 37
61.84, 35
61.85, 34
61.86, 36
61.87, 27
61.88, 38
61.89, 26
61.9, 31
61.91, 32
61.92, 26
61.93, 24
61.94, 34
61.95, 36
61.96, 23
61.97, 22
61.98, 34
61.99, 32
62, 31
62.01, 33
62.02, 23
62.03, 24
62.04, 26
62.05, 29
62.06, 37
62.07, 31
62.08, 26
62.09, 19
62.1, 21
62.11, 29
62.12, 27
62.13, 30
62.14, 30
62.15, 25
62.16, 33
62.17, 14
62.18, 21
62.19, 30
62.2, 29
62.21, 20
62.22, 23
62.23, 20
62.24, 22
62.25, 30
62.26, 21
62.27, 30
62.28, 20
62.29, 16
62.3, 22
62.31, 23
62.32, 20
62.33, 16
62.34, 28
62.35, 26
62.36, 19
62.37, 30
62.38, 30
62.39, 24
62.4, 22
62.41, 33
62.42, 27
62.43, 29
62.44, 22
62.45, 36
62.46, 22
62.47, 28
62.48, 23
62.49, 23
62.5, 29
62.51, 27
62.52, 25
62.53, 17
62.54, 29
62.55, 24
62.56, 22
62.57, 23
62.58, 23
62.59, 26
62.6, 22
62.61, 19
62.62, 24
62.63, 15
62.64, 27
62.65, 23
62.66, 19
62.67, 23
62.68, 25
62.69, 14
62.7, 19
62.71, 23
62.72, 23
62.73, 22
62.74, 26
62.75, 26
62.76, 23
62.77, 22
62.78, 20
62.79, 22
62.8, 18
62.81, 24
62.82, 21
62.83, 19
62.84, 23
62.85, 17
62.86, 15
62.87, 14
62.88, 29
62.89, 17
62.9, 20
62.91, 19
62.92, 21
62.93, 19
62.94, 19
62.95, 20
62.96, 18
62.97, 24
62.98, 21
62.99, 33
63, 27
63.01, 21
63.02, 18
63.03, 22
63.04, 23
63.05, 14
63.06, 22
63.07, 26
63.08, 24
63.09, 19
63.1, 19
63.11, 24
63.12, 25
63.13, 22
63.14, 20
63.15, 10
63.16, 14
63.17, 22
63.18, 30
63.19, 23
63.2, 24
63.21, 20
63.22, 23
63.23, 27
63.24, 18
63.25, 13
63.26, 26
63.27, 30
63.28, 19
63.29, 22
63.3, 18
63.31, 31
63.32, 16
63.33, 22
63.34, 18
63.35, 25
63.36, 16
63.37, 21
63.38, 22
63.39, 19
63.4, 19
63.41, 21
63.42, 15
63.43, 20
63.44, 16
63.45, 21
63.46, 15
63.47, 22
63.48, 16
63.49, 19
63.5, 20
63.51, 12
63.52, 21
63.53, 25
63.54, 24
63.55, 16
63.56, 24
63.57, 16
63.58, 20
63.59, 17
63.6, 20
63.61, 22
63.62, 24
63.63, 30
63.64, 28
63.65, 18
63.66, 22
63.67, 18
63.68, 16
63.69, 22
63.7, 24
63.71, 18
63.72, 20
63.73, 16
63.74, 19
63.75, 27
63.76, 18
63.77, 30
63.78, 20
63.79, 23
63.8, 16
63.81, 28
63.82, 33
63.83, 13
63.84, 21
63.85, 15
63.86, 15
63.87, 16
63.88, 16
63.89, 18
63.9, 24
63.91, 26
63.92, 23
63.93, 20
63.94, 29
63.95, 17
63.96, 22
63.97, 24
63.98, 27
63.99, 19
64, 21
64.01, 21
64.02, 20
64.03, 23
64.04, 24
64.05, 17
64.06, 25
64.07, 19
64.08, 24
64.09, 29
64.1, 16
64.11, 27
64.12, 27
64.13, 35
64.14, 20
64.15, 21
64.16, 27
64.17, 23
64.18, 27
64.19, 30
64.2, 28
64.21, 23
64.22, 22
64.23, 22
64.24, 23
64.25, 34
64.26, 27
64.27, 29
64.28, 24
64.29, 28
64.3, 28
64.31, 29
64.32, 28
64.33, 27
64.34, 33
64.35, 32
64.36, 19
64.37, 19
64.38, 38
64.39, 30
64.4, 20
64.41, 21
64.42, 30
64.43, 27
64.44, 36
64.45, 24
64.46, 33
64.47, 33
64.48, 38
64.49, 24
64.5, 26
64.51, 42
64.52, 36
64.53, 22
64.54, 38
64.55, 23
64.56, 12
64.57, 32
64.58, 23
64.59, 32
64.6, 27
64.61, 31
64.62, 22
64.63, 23
64.64, 19
64.65, 27
64.66, 24
64.67, 22
64.68, 24
64.69, 26
64.7, 17
64.71, 27
64.72, 19
64.73, 31
64.74, 16
64.75, 23
64.76, 28
64.77, 26
64.78, 27
64.79, 25
64.8, 25
64.81, 24
64.82, 17
64.83, 16
64.84, 19
64.85, 17
64.86, 20
64.87, 27
64.88, 25
64.89, 9
64.9, 16
64.91, 21
64.92, 15
64.93, 26
64.94, 25
64.95, 16
64.96, 26
64.97, 20
64.98, 19
64.99, 27
65, 17
65.01, 16
65.02, 18
65.03, 18
65.04, 26
65.05, 23
65.06, 19
65.07, 16
65.08, 31
65.09, 29
65.1, 24
65.11, 20
65.12, 16
65.13, 18
65.14, 24
65.15, 27
65.16, 21
65.17, 29
65.18, 20
65.19, 22
65.2, 22
65.21, 28
65.22, 17
65.23, 21
65.24, 22
65.25, 21
65.26, 25
65.27, 19
65.28, 19
65.29, 19
65.3, 21
65.31, 24
65.32, 26
65.33, 24
65.34, 22
65.35, 18
65.36, 28
65.37, 21
65.38, 28
65.39, 25
65.4, 20
65.41, 21
65.42, 27
65.43, 31
65.44, 27
65.45, 26
65.46, 16
65.47, 25
65.48, 28
65.49, 22
65.5, 31
65.51, 32
65.52, 20
65.53, 25
65.54, 19
65.55, 23
65.56, 22
65.57, 15
65.58, 28
65.59, 34
65.6, 38
65.61, 23
65.62, 23
65.63, 27
65.64, 21
65.65, 26
65.66, 23
65.67, 19
65.68, 23
65.69, 21
65.7, 23
65.71, 25
65.72, 19
65.73, 16
65.74, 22
65.75, 21
65.76, 25
65.77, 25
65.78, 22
65.79, 22
65.8, 24
65.81, 29
65.82, 28
65.83, 52
65.84, 35
65.85, 28
65.86, 38
65.87, 38
65.88, 33
65.89, 42
65.9, 52
65.91, 33
65.92, 36
65.93, 27
65.94, 41
65.95, 26
65.96, 23
65.97, 35
65.98, 17
65.99, 31
66, 27
66.01, 29
66.02, 25
66.03, 24
66.04, 27
66.05, 35
66.06, 30
66.07, 30
66.08, 25
66.09, 29
66.1, 25
66.11, 12
66.12, 27
66.13, 25
66.14, 32
66.15, 27
66.16, 27
66.17, 18
66.18, 19
66.19, 23
66.2, 23
66.21, 25
66.22, 16
66.23, 25
66.24, 22
66.25, 26
66.26, 28
66.27, 25
66.28, 39
66.29, 21
66.3, 34
66.31, 30
66.32, 22
66.33, 28
66.34, 18
66.35, 27
66.36, 23
66.37, 28
66.38, 26
66.39, 23
66.4, 33
66.41, 29
66.42, 27
66.43, 28
66.44, 22
66.45, 26
66.46, 24
66.47, 25
66.48, 22
66.49, 21
66.5, 26
66.51, 28
66.52, 23
66.53, 23
66.54, 19
66.55, 14
66.56, 23
66.57, 24
66.58, 21
66.59, 10
66.6, 18
66.61, 23
66.62, 28
66.63, 32
66.64, 20
66.65, 17
66.66, 19
66.67, 25
66.68, 24
66.69, 25
66.7, 18
66.71, 13
66.72, 27
66.73, 22
66.74, 23
66.75, 19
66.76, 12
66.77, 18
66.78, 22
66.79, 26
66.8, 16
66.81, 31
66.82, 19
66.83, 20
66.84, 21
66.85, 14
66.86, 19
66.87, 16
66.88, 27
66.89, 25
66.9, 23
66.91, 13
66.92, 22
66.93, 21
66.94, 19
66.95, 26
66.96, 15
66.97, 19
66.98, 20
66.99, 15
67, 22
67.01, 23
67.02, 10
67.03, 26
67.04, 17
67.05, 11
67.06, 22
67.07, 20
67.08, 16
67.09, 25
67.1, 20
67.11, 13
67.12, 28
67.13, 21
67.14, 22
67.15, 19
67.16, 15
67.17, 27
67.18, 21
67.19, 17
67.2, 24
67.21, 25
67.22, 20
67.23, 15
67.24, 18
67.25, 17
67.26, 21
67.27, 20
67.28, 20
67.29, 13
67.3, 22
67.31, 28
67.32, 19
67.33, 19
67.34, 25
67.35, 18
67.36, 23
67.37, 18
67.38, 18
67.39, 17
67.4, 18
67.41, 24
67.42, 12
67.43, 19
67.44, 11
67.45, 27
67.46, 16
67.47, 31
67.48, 20
67.49, 26
67.5, 19
67.51, 27
67.52, 21
67.53, 32
67.54, 20
67.55, 19
67.56, 29
67.57, 26
67.58, 19
67.59, 21
67.6, 25
67.61, 22
67.62, 27
67.63, 21
67.64, 12
67.65, 26
67.66, 26
67.67, 22
67.68, 25
67.69, 20
67.7, 20
67.71, 16
67.72, 13
67.73, 21
67.74, 18
67.75, 25
67.76, 31
67.77, 15
67.78, 22
67.79, 24
67.8, 19
67.81, 23
67.82, 18
67.83, 22
67.84, 16
67.85, 18
67.86, 28
67.87, 17
67.88, 14
67.89, 25
67.9, 29
67.91, 15
67.92, 19
67.93, 15
67.94, 19
67.95, 18
67.96, 25
67.97, 23
67.98, 17
67.99, 17
68, 25
68.01, 13
68.02, 22
68.03, 19
68.04, 10
68.05, 17
68.06, 22
68.07, 24
68.08, 22
68.09, 21
68.1, 15
68.11, 22
68.12, 21
68.13, 19
68.14, 21
68.15, 23
68.16, 11
68.17, 22
68.18, 15
68.19, 22
68.2, 13
68.21, 17
68.22, 24
68.23, 21
68.24, 28
68.25, 22
68.26, 17
68.27, 18
68.28, 25
68.29, 13
68.3, 15
68.31, 17
68.32, 22
68.33, 15
68.34, 12
68.35, 18
68.36, 12
68.37, 24
68.38, 17
68.39, 14
68.4, 20
68.41, 12
68.42, 24
68.43, 29
68.44, 26
68.45, 24
68.46, 28
68.47, 19
68.48, 21
68.49, 28
68.5, 13
68.51, 25
68.52, 16
68.53, 19
68.54, 15
68.55, 14
68.56, 25
68.57, 25
68.58, 21
68.59, 21
68.6, 20
68.61, 25
68.62, 19
68.63, 24
68.64, 21
68.65, 23
68.66, 17
68.67, 20
68.68, 23
68.69, 16
68.7, 22
68.71, 18
68.72, 18
68.73, 29
68.74, 28
68.75, 18
68.76, 23
68.77, 23
68.78, 29
68.79, 18
68.8, 25
68.81, 22
68.82, 20
68.83, 19
68.84, 36
68.85, 18
68.86, 24
68.87, 24
68.88, 20
68.89, 18
68.9, 14
68.91, 17
68.92, 24
68.93, 20
68.94, 25
68.95, 17
68.96, 31
68.97, 18
68.98, 14
68.99, 22
69, 20
69.01, 18
69.02, 16
69.03, 29
69.04, 25
69.05, 18
69.06, 26
69.07, 25
69.08, 30
69.09, 27
69.1, 21
69.11, 31
69.12, 21
69.13, 24
69.14, 30
69.15, 15
69.16, 23
69.17, 22
69.18, 25
69.19, 28
69.2, 21
69.21, 16
69.22, 20
69.23, 20
69.24, 21
69.25, 23
69.26, 25
69.27, 31
69.28, 19
69.29, 28
69.3, 24
69.31, 29
69.32, 28
69.33, 24
69.34, 34
69.35, 20
69.36, 23
69.37, 16
69.38, 19
69.39, 24
69.4, 35
69.41, 27
69.42, 30
69.43, 17
69.44, 26
69.45, 30
69.46, 25
69.47, 38
69.48, 28
69.49, 24
69.5, 32
69.51, 32
69.52, 29
69.53, 25
69.54, 33
69.55, 29
69.56, 33
69.57, 32
69.58, 26
69.59, 28
69.6, 29
69.61, 25
69.62, 42
69.63, 39
69.64, 40
69.65, 30
69.66, 32
69.67, 40
69.68, 40
69.69, 36
69.7, 29
69.71, 39
69.72, 36
69.73, 43
69.74, 42
69.75, 58
69.76, 47
69.77, 35
69.78, 48
69.79, 57
69.8, 51
69.81, 46
69.82, 51
69.83, 37
69.84, 46
69.85, 37
69.86, 35
69.87, 56
69.88, 42
69.89, 55
69.9, 46
69.91, 40
69.92, 39
69.93, 39
69.94, 45
69.95, 36
69.96, 35
69.97, 48
69.98, 32
69.99, 36
70, 45
70.01, 50
70.02, 39
70.03, 40
70.04, 35
70.05, 40
70.06, 34
70.07, 41
70.08, 28
70.09, 37
70.1, 34
70.11, 36
70.12, 32
70.13, 34
70.14, 30
70.15, 28
70.16, 34
70.17, 26
70.18, 36
70.19, 24
70.2, 37
70.21, 24
70.22, 29
70.23, 35
70.24, 21
70.25, 30
70.26, 23
70.27, 30
70.28, 33
70.29, 35
70.3, 35
70.31, 28
70.32, 29
70.33, 26
70.34, 27
70.35, 40
70.36, 29
70.37, 30
70.38, 34
70.39, 27
70.4, 36
70.41, 32
70.42, 28
70.43, 29
70.44, 33
70.45, 43
70.46, 33
70.47, 40
70.48, 24
70.49, 32
70.5, 42
70.51, 39
70.52, 24
70.53, 42
70.54, 37
70.55, 51
70.56, 38
70.57, 48
70.58, 29
70.59, 21
70.6, 37
70.61, 43
70.62, 39
70.63, 45
70.64, 31
70.65, 35
70.66, 38
70.67, 43
70.68, 34
70.69, 38
70.7, 30
70.71, 29
70.72, 24
70.73, 33
70.74, 45
70.75, 33
70.76, 33
70.77, 25
70.78, 36
70.79, 24
70.8, 32
70.81, 24
70.82, 32
70.83, 26
70.84, 26
70.85, 43
70.86, 31
70.87, 25
70.88, 23
70.89, 28
70.9, 26
70.91, 23
70.92, 17
70.93, 21
70.94, 25
70.95, 27
70.96, 22
70.97, 29
70.98, 28
70.99, 23
71, 30
71.01, 25
71.02, 26
71.03, 24
71.04, 17
71.05, 22
71.06, 14
71.07, 25
71.08, 21
71.09, 33
71.1, 24
71.11, 19
71.12, 13
71.13, 27
71.14, 23
71.15, 15
71.16, 26
71.17, 20
71.18, 18
71.19, 25
71.2, 22
71.21, 23
71.22, 23
71.23, 9
71.24, 26
71.25, 19
71.26, 23
71.27, 25
71.28, 26
71.29, 20
71.3, 35
71.31, 14
71.32, 22
71.33, 34
71.34, 19
71.35, 22
71.36, 24
71.37, 18
71.38, 26
71.39, 16
71.4, 18
71.41, 20
71.42, 25
71.43, 17
71.44, 29
71.45, 20
71.46, 26
71.47, 28
71.48, 17
71.49, 23
71.5, 32
71.51, 31
71.52, 23
71.53, 18
71.54, 23
71.55, 13
71.56, 27
71.57, 23
71.58, 20
71.59, 26
71.6, 31
71.61, 25
71.62, 36
71.63, 19
71.64, 25
71.65, 25
71.66, 23
71.67, 22
71.68, 21
71.69, 23
71.7, 26
71.71, 22
71.72, 23
71.73, 27
71.74, 33
71.75, 28
71.76, 18
71.77, 19
71.78, 26
71.79, 26
71.8, 30
71.81, 27
71.82, 24
71.83, 28
71.84, 20
71.85, 21
71.86, 16
71.87, 19
71.88, 26
71.89, 23
71.9, 23
71.91, 24
71.92, 26
71.93, 29
71.94, 22
71.95, 20
71.96, 24
71.97, 13
71.98, 28
71.99, 22
72, 16
72.01, 28
72.02, 18
72.03, 21
72.04, 17
72.05, 17
72.06, 13
72.07, 27
72.08, 25
72.09, 19
72.1, 13
72.11, 28
72.12, 20
72.13, 20
72.14, 21
72.15, 14
72.16, 21
72.17, 19
72.18, 30
72.19, 13
72.2, 18
72.21, 11
72.22, 20
72.23, 20
72.24, 21
72.25, 26
72.26, 23
72.27, 14
72.28, 17
72.29, 19
72.3, 23
72.31, 17
72.32, 29
72.33, 17
72.34, 14
72.35, 19
72.36, 24
72.37, 23
72.38, 19
72.39, 25
72.4, 24
72.41, 16
72.42, 24
72.43, 17
72.44, 23
72.45, 23
72.46, 28
72.47, 18
72.48, 19
72.49, 19
72.5, 18
72.51, 23
72.52, 14
72.53, 35
72.54, 37
72.55, 30
72.56, 23
72.57, 26
72.58, 26
72.59, 35
72.6, 25
72.61, 23
72.62, 28
72.63, 25
72.64, 33
72.65, 29
72.66, 22
72.67, 32
72.68, 20
72.69, 36
72.7, 31
72.71, 29
72.72, 32
72.73, 31
72.74, 25
72.75, 35
72.76, 35
72.77, 29
72.78, 26
72.79, 21
72.8, 32
72.81, 23
72.82, 32
72.83, 26
72.84, 29
72.85, 27
72.86, 21
72.87, 22
72.88, 33
72.89, 38
72.9, 37
72.91, 28
72.92, 33
72.93, 29
72.94, 32
72.95, 27
72.96, 26
72.97, 27
72.98, 28
72.99, 25
73, 21
73.01, 25
73.02, 29
73.03, 23
73.04, 22
73.05, 23
73.06, 24
73.07, 33
73.08, 32
73.09, 30
73.1, 18
73.11, 23
73.12, 30
73.13, 19
73.14, 30
73.15, 33
73.16, 19
73.17, 24
73.18, 26
73.19, 33
73.2, 29
73.21, 30
73.22, 15
73.23, 14
73.24, 20
73.25, 33
73.26, 28
73.27, 25
73.28, 13
73.29, 21
73.3, 30
73.31, 26
73.32, 21
73.33, 17
73.34, 25
73.35, 20
73.36, 21
73.37, 22
73.38, 29
73.39, 17
73.4, 24
73.41, 15
73.42, 27
73.43, 19
73.44, 29
73.45, 18
73.46, 27
73.47, 22
73.48, 30
73.49, 31
73.5, 31
73.51, 26
73.52, 23
73.53, 24
73.54, 28
73.55, 28
73.56, 25
73.57, 28
73.58, 26
73.59, 26
73.6, 21
73.61, 21
73.62, 22
73.63, 20
73.64, 33
73.65, 19
73.66, 36
73.67, 19
73.68, 27
73.69, 32
73.7, 15
73.71, 22
73.72, 15
73.73, 27
73.74, 23
73.75, 14
73.76, 27
73.77, 23
73.78, 23
73.79, 23
73.8, 16
73.81, 21
73.82, 15
73.83, 27
73.84, 22
73.85, 25
73.86, 23
73.87, 26
73.88, 21
73.89, 20
73.9, 19
73.91, 18
73.92, 16
73.93, 16
73.94, 21
73.95, 20
73.96, 23
73.97, 24
73.98, 19
73.99, 18
74, 15
74.01, 27
74.02, 26
74.03, 16
74.04, 20
74.05, 24
74.06, 29
74.07, 24
74.08, 17
74.09, 27
74.1, 14
74.11, 28
74.12, 32
74.13, 14
74.14, 25
74.15, 25
74.16, 19
74.17, 17
74.18, 23
74.19, 22
74.2, 24
74.21, 23
74.22, 24
74.23, 19
74.24, 33
74.25, 22
74.26, 26
74.27, 17
74.28, 22
74.29, 9
74.3, 23
74.31, 23
74.32, 18
74.33, 14
74.34, 16
74.35, 17
74.36, 20
74.37, 18
74.38, 14
74.39, 24
74.4, 17
74.41, 18
74.42, 15
74.43, 22
74.44, 18
74.45, 28
74.46, 20
74.47, 21
74.48, 21
74.49, 23
74.5, 25
74.51, 19
74.52, 22
74.53, 23
74.54, 19
74.55, 19
74.56, 20
74.57, 21
74.58, 22
74.59, 18
74.6, 21
74.61, 15
74.62, 17
74.63, 17
74.64, 30
74.65, 21
74.66, 18
74.67, 20
74.68, 29
74.69, 16
74.7, 16
74.71, 22
74.72, 23
74.73, 24
74.74, 28
74.75, 27
74.76, 34
74.77, 28
74.78, 18
74.79, 16
74.8, 16
74.81, 25
74.82, 25
74.83, 37
74.84, 19
74.85, 27
74.86, 21
74.87, 14
74.88, 17
74.89, 26
74.9, 23
74.91, 25
74.92, 27
74.93, 28
74.94, 17
74.95, 23
74.96, 25
74.97, 27
74.98, 22
74.99, 21
75, 17
75.01, 23
75.02, 24
75.03, 32
75.04, 24
75.05, 19
75.06, 34
75.07, 29
75.08, 19
75.09, 35
75.1, 21
75.11, 22
75.12, 26
75.13, 23
75.14, 24
75.15, 18
75.16, 23
75.17, 25
75.18, 19
75.19, 31
75.2, 16
75.21, 20
75.22, 21
75.23, 17
75.24, 22
75.25, 20
75.26, 15
75.27, 33
75.28, 18
75.29, 10
75.3, 18
75.31, 9
75.32, 18
75.33, 13
75.34, 16
75.35, 23
75.36, 26
75.37, 23
75.38, 16
75.39, 19
75.4, 16
75.41, 15
75.42, 15
75.43, 21
75.44, 21
75.45, 19
75.46, 23
75.47, 17
75.48, 21
75.49, 15
75.5, 14
75.51, 25
75.52, 20
75.53, 13
75.54, 23
75.55, 28
75.56, 27
75.57, 15
75.58, 17
75.59, 20
75.6, 11
75.61, 16
75.62, 30
75.63, 23
75.64, 20
75.65, 23
75.66, 20
75.67, 23
75.68, 24
75.69, 14
75.7, 18
75.71, 15
75.72, 21
75.73, 17
75.74, 22
75.75, 17
75.76, 29
75.77, 17
75.78, 17
75.79, 25
75.8, 25
75.81, 22
75.82, 26
75.83, 19
75.84, 27
75.85, 18
75.86, 22
75.87, 21
75.88, 22
75.89, 25
75.9, 22
75.91, 23
75.92, 22
75.93, 23
75.94, 18
75.95, 17
75.96, 19
75.97, 19
75.98, 18
75.99, 18
76, 15
76.01, 26
76.02, 18
76.03, 12
76.04, 25
76.05, 19
76.06, 15
76.07, 22
76.08, 19
76.09, 20
76.1, 15
76.11, 18
76.12, 14
76.13, 26
76.14, 19
76.15, 21
76.16, 20
76.17, 24
76.18, 27
76.19, 22
76.2, 23
76.21, 26
76.22, 24
76.23, 29
76.24, 19
76.25, 23
76.26, 20
76.27, 18
76.28, 28
76.29, 23
76.3, 28
76.31, 22
76.32, 22
76.33, 23
76.34, 26
76.35, 21
76.36, 24
76.37, 19
76.38, 27
76.39, 22
76.4, 21
76.41, 25
76.42, 24
76.43, 25
76.44, 15
76.45, 21
76.46, 21
76.47, 16
76.48, 31
76.49, 27
76.5, 23
76.51, 20
76.52, 23
76.53, 22
76.54, 23
76.55, 22
76.56, 20
76.57, 13
76.58, 27
76.59, 16
76.6, 24
76.61, 21
76.62, 23
76.63, 23
76.64, 29
76.65, 22
76.66, 24
76.67, 23
76.68, 23
76.69, 23
76.7, 28
76.71, 21
76.72, 28
76.73, 29
76.74, 33
76.75, 29
76.76, 34
76.77, 38
76.78, 27
76.79, 30
76.8, 41
76.81, 33
76.82, 49
76.83, 34
76.84, 56
76.85, 42
76.86, 30
76.87, 39
76.88, 33
76.89, 27
76.9, 28
76.91, 37
76.92, 41
76.93, 26
76.94, 28
76.95, 26
76.96, 27
76.97, 34
76.98, 22
76.99, 44
77, 22
77.01, 30
77.02, 34
77.03, 37
77.04, 33
77.05, 34
77.06, 26
77.07, 29
77.08, 42
77.09, 30
77.1, 28
77.11, 19
77.12, 23
77.13, 13
77.14, 22
77.15, 18
77.16, 36
77.17, 25
77.18, 27
77.19, 23
77.2, 23
77.21, 21
77.22, 23
77.23, 28
77.24, 17
77.25, 17
77.26, 16
77.27, 19
77.28, 26
77.29, 24
77.3, 22
77.31, 28
77.32, 21
77.33, 20
77.34, 26
77.35, 18
77.36, 7
77.37, 14
77.38, 23
77.39, 17
77.4, 17
77.41, 20
77.42, 14
77.43, 15
77.44, 12
77.45, 23
77.46, 25
77.47, 17
77.48, 17
77.49, 17
77.5, 19
77.51, 15
77.52, 21
77.53, 20
77.54, 21
77.55, 17
77.56, 30
77.57, 16
77.58, 18
77.59, 25
77.6, 22
77.61, 25
77.62, 19
77.63, 21
77.64, 22
77.65, 17
77.66, 16
77.67, 19
77.68, 20
77.69, 19
77.7, 19
77.71, 16
77.72, 19
77.73, 23
77.74, 20
77.75, 18
77.76, 19
77.77, 16
77.78, 23
77.79, 17
77.8, 19
77.81, 24
77.82, 19
77.83, 16
77.84, 19
77.85, 10
77.86, 15
77.87, 23
77.88, 24
77.89, 18
77.9, 17
77.91, 20
77.92, 18
77.93, 20
77.94, 21
77.95, 16
77.96, 16
77.97, 17
77.98, 28
77.99, 18
78, 14
78.01, 11
78.02, 24
78.03, 30
78.04, 21
78.05, 27
78.06, 17
78.07, 27
78.08, 15
78.09, 17
78.1, 19
78.11, 20
78.12, 11
78.13, 16
78.14, 22
78.15, 15
78.16, 14
78.17, 24
78.18, 17
78.19, 25
78.2, 17
78.21, 16
78.22, 15
78.23, 16
78.24, 22
78.25, 23
78.26, 22
78.27, 16
78.28, 10
78.29, 19
78.3, 11
78.31, 14
78.32, 10
78.33, 22
78.34, 11
78.35, 19
78.36, 20
78.37, 23
78.38, 18
78.39, 24
78.4, 17
78.41, 27
78.42, 17
78.43, 19
78.44, 31
78.45, 24
78.46, 15
78.47, 20
78.48, 21
78.49, 9
78.5, 24
78.51, 23
78.52, 24
78.53, 16
78.54, 24
78.55, 28
78.56, 18
78.57, 22
78.58, 19
78.59, 13
78.6, 27
78.61, 23
78.62, 21
78.63, 25
78.64, 20
78.65, 25
78.66, 17
78.67, 21
78.68, 26
78.69, 27
78.7, 22
78.71, 26
78.72, 11
78.73, 22
78.74, 20
78.75, 16
78.76, 15
78.77, 18
78.78, 21
78.79, 26
78.8, 19
78.81, 28
78.82, 25
78.83, 16
78.84, 22
78.85, 13
78.86, 18
78.87, 16
78.88, 21
78.89, 18
78.9, 15
78.91, 20
78.92, 18
78.93, 14
78.94, 18
78.95, 16
78.96, 19
78.97, 17
78.98, 15
78.99, 17
79, 19
79.01, 18
79.02, 20
79.03, 13
79.04, 16
79.05, 19
79.06, 21
79.07, 23
79.08, 19
79.09, 19
79.1, 19
79.11, 22
79.12, 24
79.13, 21
79.14, 17
79.15, 14
79.16, 20
79.17, 23
79.18, 18
79.19, 14
79.2, 14
79.21, 16
79.22, 17
79.23, 8
79.24, 28
79.25, 25
79.26, 23
79.27, 25
79.28, 19
79.29, 20
79.3, 19
79.31, 25
79.32, 17
79.33, 16
79.34, 31
79.35, 22
79.36, 19
79.37, 16
79.38, 23
79.39, 27
79.4, 19
79.41, 12
79.42, 24
79.43, 17
79.44, 21
79.45, 16
79.46, 18
79.47, 16
79.48, 27
79.49, 17
79.5, 19
79.51, 14
79.52, 18
79.53, 29
79.54, 25
79.55, 16
79.56, 19
79.57, 19
79.58, 16
79.59, 22
79.6, 20
79.61, 24
79.62, 18
79.63, 16
79.64, 19
79.65, 22
79.66, 18
79.67, 20
79.68, 10
79.69, 23
79.7, 20
79.71, 19
79.72, 13
79.73, 16
79.74, 23
79.75, 22
79.76, 20
79.77, 21
79.78, 18
79.79, 18
79.8, 21
79.81, 16
79.82, 27
79.83, 21
79.84, 17
79.85, 15
79.86, 18
79.87, 18
79.88, 23
79.89, 21
79.9, 17
79.91, 33
79.92, 15
79.93, 16
79.94, 20
79.95, 17
79.96, 19
79.97, 23
79.98, 23
79.99, 25
80, 18
80.01, 16
80.02, 18
80.03, 20
80.04, 13
80.05, 30
80.06, 18
80.07, 14
80.08, 14
80.09, 21
80.1, 20
80.11, 17
80.12, 18
80.13, 20
80.14, 21
80.15, 17
80.16, 24
80.17, 20
80.18, 16
80.19, 13
80.2, 23
80.21, 20
80.22, 28
80.23, 20
80.24, 18
80.25, 16
80.26, 25
80.27, 21
80.28, 16
80.29, 25
80.3, 27
80.31, 21
80.32, 29
80.33, 20
80.34, 21
80.35, 17
80.36, 35
80.37, 20
80.38, 22
80.39, 17
80.4, 28
80.41, 20
80.42, 28
80.43, 18
80.44, 15
80.45, 26
80.46, 24
80.47, 21
80.48, 16
80.49, 19
80.5, 18
80.51, 17
80.52, 27
80.53, 19
80.54, 11
80.55, 30
80.56, 21
80.57, 21
80.58, 19
80.59, 20
80.6, 33
80.61, 16
80.62, 20
80.63, 20
80.64, 18
80.65, 26
80.66, 15
80.67, 20
80.68, 14
80.69, 24
80.7, 14
80.71, 19
80.72, 22
80.73, 21
80.74, 23
80.75, 18
80.76, 18
80.77, 21
80.78, 14
80.79, 12
80.8, 28
80.81, 20
80.82, 17
80.83, 22
80.84, 14
80.85, 23
80.86, 19
80.87, 17
80.88, 24
80.89, 23
80.9, 25
80.91, 13
80.92, 21
80.93, 24
80.94, 22
80.95, 20
80.96, 20
80.97, 28
80.98, 15
80.99, 14
81, 21
81.01, 14
81.02, 17
81.03, 23
81.04, 19
81.05, 20
81.06, 15
81.07, 17
81.08, 24
81.09, 12
81.1, 18
81.11, 23
81.12, 14
81.13, 25
81.14, 20
81.15, 29
81.16, 18
81.17, 16
81.18, 19
81.19, 21
81.2, 23
81.21, 18
81.22, 19
81.23, 21
81.24, 21
81.25, 17
81.26, 11
81.27, 20
81.28, 18
81.29, 18
81.3, 19
81.31, 12
81.32, 22
81.33, 27
81.34, 19
81.35, 11
81.36, 13
81.37, 23
81.38, 18
81.39, 16
81.4, 16
81.41, 11
81.42, 18
81.43, 25
81.44, 15
81.45, 23
81.46, 22
81.47, 21
81.48, 29
81.49, 15
81.5, 13
81.51, 19
81.52, 20
81.53, 14
81.54, 17
81.55, 15
81.56, 20
81.57, 17
81.58, 21
81.59, 22
81.6, 17
81.61, 19
81.62, 24
81.63, 19
81.64, 18
81.65, 13
81.66, 17
81.67, 8
81.68, 19
81.69, 24
81.7, 13
81.71, 19
81.72, 15
81.73, 21
81.74, 19
81.75, 22
81.76, 19
81.77, 26
81.78, 18
81.79, 21
81.8, 15
81.81, 20
81.82, 24
81.83, 15
81.84, 24
81.85, 15
81.86, 21
81.87, 20
81.88, 19
81.89, 18
81.9, 16
81.91, 20
81.92, 25
81.93, 19
81.94, 18
81.95, 17
81.96, 15
81.97, 15
81.98, 23
81.99, 20
82, 27
82.01, 20
82.02, 16
82.03, 12
82.04, 18
82.05, 18
82.06, 23
82.07, 12
82.08, 27
82.09, 17
82.1, 19
82.11, 23
82.12, 18
82.13, 13
82.14, 21
82.15, 26
82.16, 19
82.17, 13
82.18, 15
82.19, 12
82.2, 17
82.21, 19
82.22, 10
82.23, 21
82.24, 17
82.25, 18
82.26, 14
82.27, 16
82.28, 23
82.29, 25
82.3, 13
82.31, 13
82.32, 15
82.33, 15
82.34, 16
82.35, 18
82.36, 13
82.37, 19
82.38, 11
82.39, 22
82.4, 16
82.41, 22
82.42, 22
82.43, 22
82.44, 19
82.45, 11
82.46, 14
82.47, 23
82.48, 13
82.49, 25
82.5, 18
82.51, 16
82.52, 16
82.53, 17
82.54, 23
82.55, 17
82.56, 16
82.57, 18
82.58, 13
82.59, 20
82.6, 19
82.61, 22
82.62, 21
82.63, 17
82.64, 21
82.65, 15
82.66, 14
82.67, 19
82.68, 20
82.69, 9
82.7, 22
82.71, 23
82.72, 14
82.73, 18
82.74, 13
82.75, 22
82.76, 14
82.77, 17
82.78, 16
82.79, 21
82.8, 14
82.81, 17
82.82, 19
82.83, 16
82.84, 27
82.85, 14
82.86, 18
82.87, 13
82.88, 19
82.89, 28
82.9, 18
82.91, 24
82.92, 23
82.93, 17
82.94, 11
82.95, 20
82.96, 19
82.97, 14
82.98, 22
82.99, 19
83, 23
83.01, 12
83.02, 20
83.03, 14
83.04, 18
83.05, 12
83.06, 19
83.07, 16
83.08, 26
83.09, 18
83.1, 20
83.11, 25
83.12, 15
83.13, 16
83.14, 21
83.15, 13
83.16, 16
83.17, 16
83.18, 17
83.19, 24
83.2, 17
83.21, 13
83.22, 19
83.23, 28
83.24, 14
83.25, 22
83.26, 15
83.27, 15
83.28, 17
83.29, 20
83.3, 26
83.31, 17
83.32, 16
83.33, 22
83.34, 13
83.35, 21
83.36, 19
83.37, 14
83.38, 15
83.39, 11
83.4, 20
83.41, 16
83.42, 9
83.43, 11
83.44, 13
83.45, 20
83.46, 21
83.47, 13
83.48, 14
83.49, 21
83.5, 16
83.51, 23
83.52, 21
83.53, 10
83.54, 21
83.55, 23
83.56, 17
83.57, 14
83.58, 23
83.59, 18
83.6, 20
83.61, 16
83.62, 19
83.63, 23
83.64, 29
83.65, 30
83.66, 16
83.67, 15
83.68, 19
83.69, 23
83.7, 13
83.71, 20
83.72, 15
83.73, 17
83.74, 17
83.75, 15
83.76, 19
83.77, 19
83.78, 16
83.79, 22
83.8, 25
83.81, 25
83.82, 22
83.83, 23
83.84, 14
83.85, 11
83.86, 21
83.87, 11
83.88, 22
83.89, 17
83.9, 19
83.91, 17
83.92, 18
83.93, 20
83.94, 20
83.95, 11
83.96, 16
83.97, 19
83.98, 20
83.99, 16
84, 20
84.01, 17
84.02, 15
84.03, 21
84.04, 17
84.05, 24
84.06, 27
84.07, 25
84.08, 17
84.09, 21
84.1, 16
84.11, 17
84.12, 16
84.13, 17
84.14, 12
84.15, 20
84.16, 17
84.17, 15
84.18, 21
84.19, 15
84.2, 25
84.21, 18
84.22, 15
84.23, 20
84.24, 14
84.25, 18
84.26, 12
84.27, 13
84.28, 21
84.29, 14
84.3, 16
84.31, 22
84.32, 12
84.33, 17
84.34, 18
84.35, 13
84.36, 14
84.37, 13
84.38, 14
84.39, 16
84.4, 17
84.41, 16
84.42, 18
84.43, 10
84.44, 23
84.45, 16
84.46, 20
84.47, 22
84.48, 11
84.49, 11
84.5, 18
84.51, 19
84.52, 17
84.53, 20
84.54, 12
84.55, 15
84.56, 15
84.57, 20
84.58, 18
84.59, 12
84.6, 18
84.61, 12
84.62, 19
84.63, 14
84.64, 14
84.65, 24
84.66, 15
84.67, 16
84.68, 20
84.69, 21
84.7, 11
84.71, 20
84.72, 19
84.73, 14
84.74, 17
84.75, 28
84.76, 14
84.77, 14
84.78, 20
84.79, 16
84.8, 16
84.81, 19
84.82, 19
84.83, 21
84.84, 19
84.85, 6
84.86, 15
84.87, 22
84.88, 22
84.89, 27
84.9, 8
84.91, 18
84.92, 15
84.93, 13
84.94, 19
84.95, 13
84.96, 18
84.97, 17
84.98, 26
84.99, 16
85, 21
85.01, 12
85.02, 15
85.03, 14
85.04, 19
85.05, 19
85.06, 16
85.07, 14
85.08, 24
85.09, 22
85.1, 14
85.11, 21
85.12, 11
85.13, 22
85.14, 12
85.15, 18
85.16, 21
85.17, 12
85.18, 11
85.19, 19
85.2, 15
85.21, 22
85.22, 16
85.23, 18
85.24, 15
85.25, 17
85.26, 18
85.27, 7
85.28, 20
85.29, 16
85.3, 14
85.31, 19
85.32, 16
85.33, 21
85.34, 11
85.35, 17
85.36, 14
85.37, 18
85.38, 20
85.39, 20
85.4, 23
85.41, 10
85.42, 8
85.43, 26
85.44, 12
85.45, 18
85.46, 13
85.47, 10
85.48, 15
85.49, 22
85.5, 20
85.51, 13
85.52, 14
85.53, 12
85.54, 14
85.55, 16
85.56, 17
85.57, 19
85.58, 12
85.59, 21
85.6, 10
85.61, 17
85.62, 25
85.63, 17
85.64, 18
85.65, 20
85.66, 25
85.67, 21
85.68, 16
85.69, 10
85.7, 22
85.71, 18
85.72, 19
85.73, 20
85.74, 14
85.75, 14
85.76, 27
85.77, 20
85.78, 13
85.79, 17
85.8, 14
85.81, 8
85.82, 17
85.83, 16
85.84, 16
85.85, 9
85.86, 16
85.87, 18
85.88, 13
85.89, 19
85.9, 14
85.91, 18
85.92, 16
85.93, 18
85.94, 27
85.95, 23
85.96, 18
85.97, 22
85.98, 16
85.99, 15
86, 19
86.01, 19
86.02, 15
86.03, 12
86.04, 17
86.05, 13
86.06, 17
86.07, 9
86.08, 18
86.09, 11
86.1, 20
86.11, 23
86.12, 25
86.13, 17
86.14, 16
86.15, 19
86.16, 23
86.17, 16
86.18, 13
86.19, 18
86.2, 13
86.21, 23
86.22, 20
86.23, 21
86.24, 17
86.25, 20
86.26, 15
86.27, 18
86.28, 23
86.29, 17
86.3, 23
86.31, 21
86.32, 8
86.33, 23
86.34, 16
86.35, 18
86.36, 18
86.37, 17
86.38, 9
86.39, 23
86.4, 28
86.41, 17
86.42, 21
86.43, 21
86.44, 17
86.45, 19
86.46, 20
86.47, 18
86.48, 15
86.49, 15
86.5, 21
86.51, 20
86.52, 29
86.53, 20
86.54, 16
86.55, 9
86.56, 18
86.57, 20
86.58, 20
86.59, 24
86.6, 20
86.61, 19
86.62, 14
86.63, 17
86.64, 16
86.65, 17
86.66, 19
86.67, 17
86.68, 22
86.69, 21
86.7, 29
86.71, 18
86.72, 15
86.73, 19
86.74, 14
86.75, 25
86.76, 14
86.77, 25
86.78, 23
86.79, 14
86.8, 16
86.81, 22
86.82, 15
86.83, 20
86.84, 19
86.85, 17
86.86, 9
86.87, 16
86.88, 7
86.89, 20
86.9, 14
86.91, 12
86.92, 12
86.93, 21
86.94, 17
86.95, 17
86.96, 21
86.97, 17
86.98, 20
86.99, 14
87, 16
87.01, 24
87.02, 10
87.03, 18
87.04, 17
87.05, 12
87.06, 17
87.07, 28
87.08, 18
87.09, 14
87.1, 20
87.11, 14
87.12, 22
87.13, 26
87.14, 17
87.15, 23
87.16, 16
87.17, 22
87.18, 15
87.19, 18
87.2, 23
87.21, 14
87.22, 19
87.23, 18
87.24, 19
87.25, 11
87.26, 16
87.27, 16
87.28, 23
87.29, 21
87.3, 12
87.31, 16
87.32, 15
87.33, 19
87.34, 16
87.35, 31
87.36, 20
87.37, 23
87.38, 18
87.39, 17
87.4, 21
87.41, 19
87.42, 19
87.43, 22
87.44, 24
87.45, 19
87.46, 23
87.47, 12
87.48, 21
87.49, 25
87.5, 17
87.51, 17
87.52, 24
87.53, 19
87.54, 12
87.55, 20
87.56, 16
87.57, 19
87.58, 15
87.59, 18
87.6, 14
87.61, 24
87.62, 18
87.63, 15
87.64, 16
87.65, 16
87.66, 19
87.67, 10
87.68, 17
87.69, 21
87.7, 17
87.71, 25
87.72, 16
87.73, 23
87.74, 12
87.75, 14
87.76, 18
87.77, 16
87.78, 25
87.79, 16
87.8, 21
87.81, 18
87.82, 22
87.83, 21
87.84, 22
87.85, 16
87.86, 12
87.87, 18
87.88, 20
87.89, 24
87.9, 17
87.91, 22
87.92, 16
87.93, 19
87.94, 20
87.95, 19
87.96, 15
87.97, 7
87.98, 20
87.99, 22
88, 19
88.01, 19
88.02, 22
88.03, 22
88.04, 11
88.05, 20
88.06, 16
88.07, 16
88.08, 24
88.09, 22
88.1, 23
88.11, 20
88.12, 17
88.13, 18
88.14, 16
88.15, 17
88.16, 24
88.17, 20
88.18, 17
88.19, 21
88.2, 13
88.21, 14
88.22, 17
88.23, 13
88.24, 11
88.25, 17
88.26, 15
88.27, 17
88.28, 16
88.29, 17
88.3, 23
88.31, 18
88.32, 17
88.33, 17
88.34, 14
88.35, 24
88.36, 19
88.37, 15
88.38, 17
88.39, 19
88.4, 27
88.41, 20
88.42, 15
88.43, 26
88.44, 23
88.45, 12
88.46, 23
88.47, 20
88.48, 21
88.49, 16
88.5, 18
88.51, 9
88.52, 14
88.53, 20
88.54, 22
88.55, 20
88.56, 23
88.57, 16
88.58, 21
88.59, 12
88.6, 11
88.61, 18
88.62, 10
88.63, 15
88.64, 23
88.65, 18
88.66, 15
88.67, 28
88.68, 22
88.69, 21
88.7, 23
88.71, 19
88.72, 23
88.73, 18
88.74, 18
88.75, 22
88.76, 23
88.77, 17
88.78, 17
88.79, 18
88.8, 16
88.81, 21
88.82, 13
88.83, 10
88.84, 13
88.85, 18
88.86, 15
88.87, 21
88.88, 20
88.89, 19
88.9, 17
88.91, 18
88.92, 16
88.93, 20
88.94, 18
88.95, 15
88.96, 19
88.97, 19
88.98, 16
88.99, 12
89, 13
89.01, 13
89.02, 15
89.03, 13
89.04, 17
89.05, 23
89.06, 16
89.07, 14
89.08, 10
89.09, 18
89.1, 19
89.11, 21
89.12, 23
89.13, 13
89.14, 12
89.15, 12
89.16, 16
89.17, 15
89.18, 15
89.19, 13
89.2, 14
89.21, 24
89.22, 24
89.23, 14
89.24, 17
89.25, 20
89.26, 24
89.27, 25
89.28, 21
89.29, 14
89.3, 22
89.31, 21
89.32, 14
89.33, 19
89.34, 25
89.35, 19
89.36, 14
89.37, 23
89.38, 14
89.39, 15
89.4, 17
89.41, 19
89.42, 16
89.43, 19
89.44, 14
89.45, 18
89.46, 19
89.47, 15
89.48, 19
89.49, 13
89.5, 12
89.51, 19
89.52, 15
89.53, 10
89.54, 15
89.55, 19
89.56, 12
89.57, 21
89.58, 18
89.59, 10
89.6, 12
89.61, 19
89.62, 19
89.63, 19
89.64, 13
89.65, 15
89.66, 9
89.67, 18
89.68, 20
89.69, 17
89.7, 15
89.71, 11
89.72, 19
89.73, 15
89.74, 18
89.75, 19
89.76, 17
89.77, 11
89.78, 16
89.79, 16
89.8, 15
89.81, 14
89.82, 12
89.83, 19
89.84, 14
89.85, 25
89.86, 23
89.87, 12
89.88, 21
89.89, 19
89.9, 19
89.91, 18
89.92, 17
89.93, 17
89.94, 9
89.95, 13
89.96, 23
89.97, 22
89.98, 14
89.99, 17
90, 17
##END=



