##NAMES=Fluorite
##RRUFFID=R050115
##IDEAL CHEMISTRY=CaF_2_
##LOCALITY=Isthak Valley Iskardu, N.A. Gilgit, Pakistan
##OWNER=RRUFF
##SOURCE=Syed Shah
##DESCRIPTION=Colorless fragment
##STATUS=The identification of this mineral has been confirmed by X-ray diffraction and chemical analysis
##URL=https://www.rruff.net/odr/rruff_sample/R050115
##MEASURED CHEMISTRY=CaF_2_
##DIFFRACTION SAMPLE DESCRIPTION=Powder
##CELL PARAMETERS=a: 5.46438 b: 5.46438 c: 5.46438 alpha: 90 beta: 90 gamma: 90 volume: 163.163 crystal system: cubic
##FILETYPE=RAW Powder Diffraction Profile

5, 14
5.01, 19
5.02, 18
5.03, 14
5.04, 17
5.05, 15
5.06, 20
5.07, 19
5.08, 14
5.09, 13
5.1, 14
5.11, 13
5.12, 10
5.13, 15
5.14, 18
5.15, 19
5.16, 17
5.17, 24
5.18, 20
5.19, 12
5.2, 13
5.21, 21
5.22, 14
5.23, 16
5.24, 22
5.25, 14
5.26, 15
5.27, 9
5.28, 27
5.29, 19
5.3, 21
5.31, 15
5.32, 17
5.33, 7
5.34, 13
5.35, 19
5.36, 19
5.37, 20
5.38, 19
5.39, 20
5.4, 13
5.41, 18
5.42, 24
5.43, 15
5.44, 20
5.45, 9
5.46, 13
5.47, 11
5.48, 15
5.49, 16
5.5, 14
5.51, 15
5.52, 15
5.53, 16
5.54, 12
5.55, 16
5.56, 19
5.57, 21
5.58, 20
5.59, 14
5.6, 18
5.61, 15
5.62, 16
5.63, 23
5.64, 22
5.65, 19
5.66, 22
5.67, 19
5.68, 21
5.69, 19
5.7, 16
5.71, 26
5.72, 27
5.73, 12
5.74, 19
5.75, 14
5.76, 25
5.77, 26
5.78, 23
5.79, 23
5.8, 23
5.81, 18
5.82, 17
5.83, 21
5.84, 24
5.85, 19
5.86, 31
5.87, 28
5.88, 25
5.89, 20
5.9, 27
5.91, 17
5.92, 29
5.93, 22
5.94, 37
5.95, 21
5.96, 28
5.97, 24
5.98, 29
5.99, 17
6, 30
6.01, 28
6.02, 35
6.03, 29
6.04, 29
6.05, 35
6.06, 36
6.07, 36
6.08, 34
6.09, 30
6.1, 31
6.11, 31
6.12, 30
6.13, 39
6.14, 32
6.15, 32
6.16, 27
6.17, 37
6.18, 32
6.19, 33
6.2, 45
6.21, 39
6.22, 33
6.23, 35
6.24, 43
6.25, 25
6.26, 36
6.27, 30
6.28, 36
6.29, 40
6.3, 36
6.31, 34
6.32, 35
6.33, 38
6.34, 29
6.35, 37
6.36, 38
6.37, 35
6.38, 36
6.39, 36
6.4, 30
6.41, 47
6.42, 40
6.43, 36
6.44, 29
6.45, 42
6.46, 24
6.47, 33
6.48, 29
6.49, 35
6.5, 28
6.51, 45
6.52, 35
6.53, 42
6.54, 32
6.55, 27
6.56, 34
6.57, 32
6.58, 33
6.59, 33
6.6, 27
6.61, 32
6.62, 30
6.63, 26
6.64, 21
6.65, 36
6.66, 20
6.67, 27
6.68, 28
6.69, 32
6.7, 28
6.71, 28
6.72, 29
6.73, 25
6.74, 32
6.75, 19
6.76, 20
6.77, 29
6.78, 15
6.79, 20
6.8, 22
6.81, 18
6.82, 10
6.83, 14
6.84, 10
6.85, 16
6.86, 13
6.87, 10
6.88, 9
6.89, 13
6.9, 12
6.91, 15
6.92, 7
6.93, 19
6.94, 12
6.95, 14
6.96, 11
6.97, 11
6.98, 11
6.99, 15
7, 11
7.01, 8
7.02, 9
7.03, 10
7.04, 19
7.05, 13
7.06, 11
7.07, 12
7.08, 15
7.09, 9
7.1, 8
7.11, 16
7.12, 17
7.13, 19
7.14, 15
7.15, 11
7.16, 10
7.17, 7
7.18, 17
7.19, 12
7.2, 14
7.21, 15
7.22, 12
7.23, 12
7.24, 12
7.25, 16
7.26, 11
7.27, 9
7.28, 14
7.29, 9
7.3, 14
7.31, 20
7.32, 10
7.33, 18
7.34, 15
7.35, 11
7.36, 12
7.37, 11
7.38, 14
7.39, 9
7.4, 10
7.41, 14
7.42, 12
7.43, 9
7.44, 10
7.45, 15
7.46, 11
7.47, 9
7.48, 6
7.49, 6
7.5, 9
7.51, 10
7.52, 13
7.53, 14
7.54, 8
7.55, 13
7.56, 7
7.57, 9
7.58, 8
7.59, 7
7.6, 9
7.61, 14
7.62, 9
7.63, 6
7.64, 16
7.65, 15
7.66, 11
7.67, 11
7.68, 6
7.69, 14
7.7, 8
7.71, 8
7.72, 17
7.73, 13
7.74, 10
7.75, 12
7.76, 8
7.77, 8
7.78, 11
7.79, 8
7.8, 17
7.81, 11
7.82, 16
7.83, 9
7.84, 5
7.85, 12
7.86, 9
7.87, 12
7.88, 4
7.89, 12
7.9, 6
7.91, 13
7.92, 12
7.93, 11
7.94, 5
7.95, 18
7.96, 9
7.97, 7
7.98, 8
7.99, 13
8, 12
8.01, 13
8.02, 8
8.03, 10
8.04, 10
8.05, 13
8.06, 13
8.07, 5
8.08, 16
8.09, 12
8.1, 11
8.11, 7
8.12, 7
8.13, 14
8.14, 11
8.15, 10
8.16, 16
8.17, 8
8.18, 13
8.19, 9
8.2, 12
8.21, 8
8.22, 10
8.23, 6
8.24, 14
8.25, 9
8.26, 9
8.27, 12
8.28, 9
8.29, 9
8.3, 12
8.31, 6
8.32, 9
8.33, 4
8.34, 8
8.35, 14
8.36, 5
8.37, 8
8.38, 9
8.39, 6
8.4, 7
8.41, 7
8.42, 4
8.43, 9
8.44, 10
8.45, 7
8.46, 7
8.47, 10
8.48, 9
8.49, 7
8.5, 14
8.51, 8
8.52, 10
8.53, 10
8.54, 12
8.55, 8
8.56, 9
8.57, 13
8.58, 10
8.59, 6
8.6, 10
8.61, 9
8.62, 5
8.63, 14
8.64, 12
8.65, 10
8.66, 7
8.67, 9
8.68, 14
8.69, 9
8.7, 10
8.71, 6
8.72, 10
8.73, 13
8.74, 7
8.75, 8
8.76, 10
8.77, 12
8.78, 4
8.79, 11
8.8, 11
8.81, 8
8.82, 10
8.83, 8
8.84, 3
8.85, 8
8.86, 7
8.87, 13
8.88, 6
8.89, 4
8.9, 9
8.91, 13
8.92, 5
8.93, 8
8.94, 10
8.95, 12
8.96, 8
8.97, 11
8.98, 7
8.99, 6
9, 12
9.01, 9
9.02, 6
9.03, 13
9.04, 8
9.05, 11
9.06, 6
9.07, 8
9.08, 12
9.09, 16
9.1, 8
9.11, 9
9.12, 9
9.13, 12
9.14, 9
9.15, 10
9.16, 12
9.17, 7
9.18, 11
9.19, 14
9.2, 10
9.21, 14
9.22, 8
9.23, 6
9.24, 6
9.25, 8
9.26, 7
9.27, 11
9.28, 5
9.29, 6
9.3, 6
9.31, 9
9.32, 13
9.33, 9
9.34, 8
9.35, 14
9.36, 9
9.37, 5
9.38, 14
9.39, 11
9.4, 12
9.41, 14
9.42, 19
9.43, 11
9.44, 9
9.45, 16
9.46, 10
9.47, 15
9.48, 10
9.49, 12
9.5, 10
9.51, 12
9.52, 19
9.53, 11
9.54, 11
9.55, 14
9.56, 9
9.57, 17
9.58, 15
9.59, 14
9.6, 18
9.61, 15
9.62, 10
9.63, 12
9.64, 8
9.65, 13
9.66, 14
9.67, 13
9.68, 10
9.69, 7
9.7, 14
9.71, 19
9.72, 17
9.73, 9
9.74, 15
9.75, 13
9.76, 16
9.77, 15
9.78, 12
9.79, 9
9.8, 12
9.81, 10
9.82, 20
9.83, 16
9.84, 15
9.85, 19
9.86, 14
9.87, 15
9.88, 11
9.89, 23
9.9, 15
9.91, 14
9.92, 12
9.93, 10
9.94, 26
9.95, 15
9.96, 16
9.97, 13
9.98, 20
9.99, 15
10, 16
10.01, 18
10.02, 21
10.03, 15
10.04, 14
10.05, 15
10.06, 19
10.07, 20
10.08, 15
10.09, 22
10.1, 21
10.11, 21
10.12, 25
10.13, 13
10.14, 20
10.15, 22
10.16, 18
10.17, 16
10.18, 15
10.19, 10
10.2, 9
10.21, 18
10.22, 18
10.23, 13
10.24, 18
10.25, 12
10.26, 11
10.27, 14
10.28, 12
10.29, 18
10.3, 15
10.31, 18
10.32, 18
10.33, 15
10.34, 16
10.35, 14
10.36, 19
10.37, 17
10.38, 17
10.39, 16
10.4, 10
10.41, 16
10.42, 13
10.43, 17
10.44, 17
10.45, 14
10.46, 11
10.47, 12
10.48, 22
10.49, 19
10.5, 11
10.51, 15
10.52, 15
10.53, 12
10.54, 20
10.55, 19
10.56, 17
10.57, 17
10.58, 20
10.59, 18
10.6, 15
10.61, 19
10.62, 17
10.63, 19
10.64, 21
10.65, 13
10.66, 16
10.67, 16
10.68, 16
10.69, 15
10.7, 15
10.71, 15
10.72, 15
10.73, 19
10.74, 17
10.75, 19
10.76, 18
10.77, 17
10.78, 15
10.79, 14
10.8, 22
10.81, 11
10.82, 12
10.83, 11
10.84, 12
10.85, 18
10.86, 19
10.87, 14
10.88, 14
10.89, 16
10.9, 20
10.91, 20
10.92, 12
10.93, 13
10.94, 20
10.95, 21
10.96, 12
10.97, 13
10.98, 8
10.99, 11
11, 18
11.01, 11
11.02, 15
11.03, 15
11.04, 11
11.05, 13
11.06, 17
11.07, 5
11.08, 12
11.09, 7
11.1, 16
11.11, 9
11.12, 11
11.13, 15
11.14, 9
11.15, 7
11.16, 12
11.17, 9
11.18, 11
11.19, 8
11.2, 11
11.21, 8
11.22, 13
11.23, 5
11.24, 11
11.25, 14
11.26, 5
11.27, 10
11.28, 9
11.29, 10
11.3, 10
11.31, 9
11.32, 6
11.33, 14
11.34, 12
11.35, 10
11.36, 13
11.37, 7
11.38, 6
11.39, 10
11.4, 4
11.41, 10
11.42, 18
11.43, 11
11.44, 16
11.45, 9
11.46, 10
11.47, 7
11.48, 12
11.49, 8
11.5, 10
11.51, 12
11.52, 9
11.53, 11
11.54, 11
11.55, 7
11.56, 13
11.57, 8
11.58, 10
11.59, 8
11.6, 13
11.61, 9
11.62, 8
11.63, 7
11.64, 12
11.65, 7
11.66, 8
11.67, 13
11.68, 10
11.69, 9
11.7, 13
11.71, 14
11.72, 14
11.73, 9
11.74, 7
11.75, 12
11.76, 16
11.77, 7
11.78, 9
11.79, 6
11.8, 7
11.81, 10
11.82, 12
11.83, 14
11.84, 12
11.85, 12
11.86, 16
11.87, 3
11.88, 7
11.89, 7
11.9, 8
11.91, 10
11.92, 5
11.93, 6
11.94, 6
11.95, 8
11.96, 11
11.97, 7
11.98, 14
11.99, 13
12, 6
12.01, 10
12.02, 11
12.03, 10
12.04, 11
12.05, 10
12.06, 8
12.07, 12
12.08, 5
12.09, 13
12.1, 16
12.11, 12
12.12, 12
12.13, 7
12.14, 8
12.15, 10
12.16, 10
12.17, 8
12.18, 9
12.19, 13
12.2, 12
12.21, 8
12.22, 9
12.23, 17
12.24, 9
12.25, 17
12.26, 12
12.27, 9
12.28, 7
12.29, 8
12.3, 7
12.31, 13
12.32, 18
12.33, 7
12.34, 15
12.35, 8
12.36, 9
12.37, 9
12.38, 10
12.39, 16
12.4, 17
12.41, 6
12.42, 8
12.43, 8
12.44, 13
12.45, 6
12.46, 14
12.47, 10
12.48, 11
12.49, 14
12.5, 6
12.51, 12
12.52, 13
12.53, 11
12.54, 10
12.55, 13
12.56, 7
12.57, 9
12.58, 8
12.59, 9
12.6, 9
12.61, 11
12.62, 11
12.63, 7
12.64, 15
12.65, 17
12.66, 7
12.67, 11
12.68, 9
12.69, 5
12.7, 14
12.71, 8
12.72, 6
12.73, 11
12.74, 8
12.75, 14
12.76, 15
12.77, 3
12.78, 11
12.79, 8
12.8, 14
12.81, 12
12.82, 8
12.83, 16
12.84, 11
12.85, 12
12.86, 8
12.87, 11
12.88, 10
12.89, 12
12.9, 7
12.91, 11
12.92, 17
12.93, 10
12.94, 9
12.95, 10
12.96, 9
12.97, 7
12.98, 8
12.99, 4
13, 11
13.01, 7
13.02, 12
13.03, 10
13.04, 12
13.05, 10
13.06, 7
13.07, 7
13.08, 5
13.09, 6
13.1, 8
13.11, 6
13.12, 12
13.13, 4
13.14, 10
13.15, 10
13.16, 9
13.17, 7
13.18, 5
13.19, 11
13.2, 9
13.21, 7
13.22, 10
13.23, 6
13.24, 7
13.25, 10
13.26, 8
13.27, 8
13.28, 11
13.29, 13
13.3, 9
13.31, 6
13.32, 10
13.33, 7
13.34, 7
13.35, 11
13.36, 8
13.37, 7
13.38, 9
13.39, 8
13.4, 9
13.41, 8
13.42, 7
13.43, 8
13.44, 10
13.45, 11
13.46, 4
13.47, 6
13.48, 5
13.49, 9
13.5, 5
13.51, 4
13.52, 11
13.53, 9
13.54, 12
13.55, 5
13.56, 12
13.57, 10
13.58, 8
13.59, 6
13.6, 16
13.61, 8
13.62, 4
13.63, 11
13.64, 19
13.65, 10
13.66, 8
13.67, 2
13.68, 5
13.69, 7
13.7, 14
13.71, 7
13.72, 13
13.73, 5
13.74, 3
13.75, 8
13.76, 6
13.77, 6
13.78, 8
13.79, 10
13.8, 6
13.81, 12
13.82, 5
13.83, 4
13.84, 5
13.85, 13
13.86, 6
13.87, 7
13.88, 8
13.89, 9
13.9, 6
13.91, 8
13.92, 10
13.93, 11
13.94, 4
13.95, 9
13.96, 7
13.97, 11
13.98, 4
13.99, 8
14, 6
14.01, 7
14.02, 11
14.03, 6
14.04, 8
14.05, 7
14.06, 10
14.07, 12
14.08, 7
14.09, 9
14.1, 10
14.11, 7
14.12, 6
14.13, 8
14.14, 11
14.15, 4
14.16, 5
14.17, 6
14.18, 5
14.19, 7
14.2, 9
14.21, 9
14.22, 7
14.23, 4
14.24, 7
14.25, 6
14.26, 11
14.27, 10
14.28, 9
14.29, 2
14.3, 9
14.31, 7
14.32, 12
14.33, 4
14.34, 8
14.35, 9
14.36, 4
14.37, 6
14.38, 8
14.39, 8
14.4, 6
14.41, 9
14.42, 11
14.43, 12
14.44, 10
14.45, 4
14.46, 10
14.47, 3
14.48, 10
14.49, 7
14.5, 9
14.51, 7
14.52, 10
14.53, 12
14.54, 11
14.55, 4
14.56, 9
14.57, 7
14.58, 7
14.59, 6
14.6, 3
14.61, 8
14.62, 4
14.63, 12
14.64, 14
14.65, 8
14.66, 8
14.67, 13
14.68, 10
14.69, 5
14.7, 4
14.71, 8
14.72, 5
14.73, 5
14.74, 10
14.75, 11
14.76, 12
14.77, 3
14.78, 11
14.79, 8
14.8, 7
14.81, 4
14.82, 8
14.83, 6
14.84, 10
14.85, 7
14.86, 7
14.87, 8
14.88, 6
14.89, 7
14.9, 4
14.91, 11
14.92, 9
14.93, 3
14.94, 5
14.95, 4
14.96, 10
14.97, 8
14.98, 7
14.99, 5
15, 7
15.01, 6
15.02, 6
15.03, 9
15.04, 10
15.05, 9
15.06, 7
15.07, 8
15.08, 7
15.09, 10
15.1, 12
15.11, 8
15.12, 5
15.13, 10
15.14, 11
15.15, 10
15.16, 11
15.17, 7
15.18, 8
15.19, 9
15.2, 7
15.21, 5
15.22, 5
15.23, 7
15.24, 9
15.25, 5
15.26, 8
15.27, 12
15.28, 9
15.29, 7
15.3, 7
15.31, 11
15.32, 8
15.33, 10
15.34, 8
15.35, 9
15.36, 10
15.37, 6
15.38, 10
15.39, 5
15.4, 8
15.41, 11
15.42, 2
15.43, 9
15.44, 8
15.45, 9
15.46, 6
15.47, 5
15.48, 6
15.49, 5
15.5, 3
15.51, 6
15.52, 9
15.53, 17
15.54, 5
15.55, 14
15.56, 7
15.57, 5
15.58, 6
15.59, 9
15.6, 13
15.61, 14
15.62, 12
15.63, 7
15.64, 6
15.65, 8
15.66, 10
15.67, 10
15.68, 9
15.69, 7
15.7, 5
15.71, 3
15.72, 9
15.73, 6
15.74, 10
15.75, 15
15.76, 9
15.77, 10
15.78, 6
15.79, 7
15.8, 7
15.81, 3
15.82, 8
15.83, 12
15.84, 5
15.85, 11
15.86, 5
15.87, 10
15.88, 9
15.89, 0
15.9, 6
15.91, 13
15.92, 9
15.93, 8
15.94, 7
15.95, 8
15.96, 10
15.97, 10
15.98, 4
15.99, 9
16, 10
16.01, 10
16.02, 8
16.03, 4
16.04, 11
16.05, 4
16.06, 12
16.07, 5
16.08, 4
16.09, 8
16.1, 3
16.11, 14
16.12, 5
16.13, 10
16.14, 12
16.15, 8
16.16, 13
16.17, 7
16.18, 7
16.19, 8
16.2, 13
16.21, 9
16.22, 6
16.23, 4
16.24, 3
16.25, 5
16.26, 6
16.27, 9
16.28, 5
16.29, 10
16.3, 3
16.31, 8
16.32, 15
16.33, 2
16.34, 1
16.35, 9
16.36, 13
16.37, 6
16.38, 3
16.39, 5
16.4, 6
16.41, 11
16.42, 10
16.43, 7
16.44, 10
16.45, 10
16.46, 9
16.47, 7
16.48, 9
16.49, 6
16.5, 4
16.51, 13
16.52, 7
16.53, 13
16.54, 4
16.55, 10
16.56, 8
16.57, 3
16.58, 9
16.59, 9
16.6, 4
16.61, 11
16.62, 10
16.63, 9
16.64, 7
16.65, 14
16.66, 7
16.67, 5
16.68, 4
16.69, 10
16.7, 16
16.71, 7
16.72, 6
16.73, 7
16.74, 7
16.75, 17
16.76, 8
16.77, 10
16.78, 5
16.79, 7
16.8, 16
16.81, 7
16.82, 8
16.83, 7
16.84, 9
16.85, 4
16.86, 11
16.87, 9
16.88, 9
16.89, 3
16.9, 7
16.91, 7
16.92, 7
16.93, 7
16.94, 8
16.95, 9
16.96, 7
16.97, 7
16.98, 2
16.99, 8
17, 7
17.01, 12
17.02, 6
17.03, 4
17.04, 6
17.05, 5
17.06, 9
17.07, 8
17.08, 9
17.09, 6
17.1, 10
17.11, 11
17.12, 9
17.13, 11
17.14, 7
17.15, 3
17.16, 6
17.17, 6
17.18, 9
17.19, 5
17.2, 9
17.21, 3
17.22, 7
17.23, 5
17.24, 4
17.25, 7
17.26, 7
17.27, 5
17.28, 3
17.29, 5
17.3, 8
17.31, 10
17.32, 3
17.33, 9
17.34, 4
17.35, 7
17.36, 6
17.37, 1
17.38, 6
17.39, 11
17.4, 4
17.41, 10
17.42, 6
17.43, 6
17.44, 8
17.45, 6
17.46, 5
17.47, 5
17.48, 6
17.49, 6
17.5, 7
17.51, 11
17.52, 8
17.53, 9
17.54, 9
17.55, 14
17.56, 14
17.57, 12
17.58, 10
17.59, 7
17.6, 11
17.61, 7
17.62, 5
17.63, 10
17.64, 8
17.65, 6
17.66, 7
17.67, 8
17.68, 5
17.69, 4
17.7, 10
17.71, 6
17.72, 9
17.73, 9
17.74, 8
17.75, 6
17.76, 6
17.77, 11
17.78, 9
17.79, 9
17.8, 8
17.81, 8
17.82, 3
17.83, 7
17.84, 7
17.85, 9
17.86, 9
17.87, 13
17.88, 12
17.89, 11
17.9, 11
17.91, 6
17.92, 4
17.93, 7
17.94, 11
17.95, 4
17.96, 7
17.97, 10
17.98, 7
17.99, 5
18, 6
18.01, 6
18.02, 5
18.03, 8
18.04, 14
18.05, 9
18.06, 7
18.07, 9
18.08, 8
18.09, 7
18.1, 8
18.11, 5
18.12, 10
18.13, 6
18.14, 7
18.15, 8
18.16, 10
18.17, 6
18.18, 5
18.19, 5
18.2, 15
18.21, 9
18.22, 5
18.23, 6
18.24, 6
18.25, 7
18.26, 4
18.27, 5
18.28, 6
18.29, 6
18.3, 7
18.31, 9
18.32, 5
18.33, 10
18.34, 4
18.35, 4
18.36, 5
18.37, 8
18.38, 8
18.39, 4
18.4, 7
18.41, 9
18.42, 7
18.43, 5
18.44, 6
18.45, 7
18.46, 5
18.47, 4
18.48, 1
18.49, 6
18.5, 15
18.51, 10
18.52, 4
18.53, 3
18.54, 9
18.55, 7
18.56, 5
18.57, 7
18.58, 8
18.59, 8
18.6, 6
18.61, 7
18.62, 7
18.63, 6
18.64, 11
18.65, 7
18.66, 8
18.67, 8
18.68, 7
18.69, 6
18.7, 7
18.71, 5
18.72, 10
18.73, 7
18.74, 3
18.75, 4
18.76, 4
18.77, 8
18.78, 5
18.79, 8
18.8, 10
18.81, 9
18.82, 8
18.83, 7
18.84, 2
18.85, 9
18.86, 2
18.87, 4
18.88, 10
18.89, 12
18.9, 4
18.91, 7
18.92, 6
18.93, 5
18.94, 7
18.95, 5
18.96, 3
18.97, 7
18.98, 6
18.99, 3
19, 5
19.01, 9
19.02, 10
19.03, 6
19.04, 5
19.05, 7
19.06, 8
19.07, 7
19.08, 10
19.09, 9
19.1, 7
19.11, 4
19.12, 7
19.13, 13
19.14, 4
19.15, 10
19.16, 7
19.17, 8
19.18, 9
19.19, 9
19.2, 5
19.21, 7
19.22, 7
19.23, 7
19.24, 8
19.25, 5
19.26, 5
19.27, 7
19.28, 9
19.29, 5
19.3, 3
19.31, 5
19.32, 7
19.33, 7
19.34, 4
19.35, 6
19.36, 8
19.37, 2
19.38, 12
19.39, 5
19.4, 8
19.41, 6
19.42, 6
19.43, 6
19.44, 5
19.45, 7
19.46, 4
19.47, 5
19.48, 8
19.49, 5
19.5, 6
19.51, 6
19.52, 1
19.53, 5
19.54, 7
19.55, 7
19.56, 9
19.57, 4
19.58, 9
19.59, 6
19.6, 5
19.61, 9
19.62, 6
19.63, 5
19.64, 4
19.65, 11
19.66, 4
19.67, 4
19.68, 5
19.69, 10
19.7, 5
19.71, 2
19.72, 8
19.73, 9
19.74, 6
19.75, 6
19.76, 6
19.77, 9
19.78, 5
19.79, 11
19.8, 3
19.81, 7
19.82, 8
19.83, 10
19.84, 8
19.85, 2
19.86, 1
19.87, 3
19.88, 4
19.89, 8
19.9, 9
19.91, 5
19.92, 6
19.93, 5
19.94, 4
19.95, 6
19.96, 3
19.97, 2
19.98, 5
19.99, 6
20, 4
20.01, 7
20.02, 11
20.03, 6
20.04, 5
20.05, 7
20.06, 6
20.07, 4
20.08, 5
20.09, 9
20.1, 6
20.11, 4
20.12, 7
20.13, 7
20.14, 9
20.15, 7
20.16, 7
20.17, 4
20.18, 3
20.19, 10
20.2, 2
20.21, 6
20.22, 6
20.23, 4
20.24, 11
20.25, 7
20.26, 10
20.27, 6
20.28, 5
20.29, 5
20.3, 2
20.31, 3
20.32, 4
20.33, 12
20.34, 6
20.35, 5
20.36, 3
20.37, 4
20.38, 8
20.39, 6
20.4, 4
20.41, 9
20.42, 4
20.43, 4
20.44, 9
20.45, 4
20.46, 8
20.47, 1
20.48, 3
20.49, 9
20.5, 6
20.51, 8
20.52, 10
20.53, 3
20.54, 5
20.55, 6
20.56, 6
20.57, 5
20.58, 3
20.59, 9
20.6, 6
20.61, 7
20.62, 3
20.63, 6
20.64, 4
20.65, 6
20.66, 1
20.67, 5
20.68, 4
20.69, 2
20.7, 5
20.71, 4
20.72, 2
20.73, 5
20.74, 8
20.75, 7
20.76, 4
20.77, 2
20.78, 4
20.79, 4
20.8, 3
20.81, 2
20.82, 5
20.83, 4
20.84, 5
20.85, 6
20.86, 4
20.87, 8
20.88, 8
20.89, 9
20.9, 4
20.91, 3
20.92, 6
20.93, 4
20.94, 5
20.95, 6
20.96, 5
20.97, 4
20.98, 4
20.99, 9
21, 5
21.01, 4
21.02, 4
21.03, 7
21.04, 9
21.05, 5
21.06, 3
21.07, 5
21.08, 7
21.09, 12
21.1, 2
21.11, 6
21.12, 8
21.13, 2
21.14, 6
21.15, 7
21.16, 8
21.17, 5
21.18, 8
21.19, 5
21.2, 5
21.21, 5
21.22, 9
21.23, 5
21.24, 7
21.25, 4
21.26, 10
21.27, 3
21.28, 8
21.29, 6
21.3, 7
21.31, 10
21.32, 10
21.33, 3
21.34, 4
21.35, 5
21.36, 11
21.37, 5
21.38, 4
21.39, 6
21.4, 5
21.41, 6
21.42, 2
21.43, 4
21.44, 5
21.45, 8
21.46, 6
21.47, 10
21.48, 3
21.49, 4
21.5, 4
21.51, 6
21.52, 9
21.53, 5
21.54, 8
21.55, 8
21.56, 3
21.57, 8
21.58, 8
21.59, 3
21.6, 8
21.61, 6
21.62, 5
21.63, 5
21.64, 7
21.65, 2
21.66, 7
21.67, 5
21.68, 2
21.69, 6
21.7, 7
21.71, 6
21.72, 5
21.73, 8
21.74, 7
21.75, 6
21.76, 8
21.77, 8
21.78, 8
21.79, 6
21.8, 3
21.81, 4
21.82, 10
21.83, 4
21.84, 5
21.85, 7
21.86, 4
21.87, 3
21.88, 4
21.89, 5
21.9, 6
21.91, 4
21.92, 7
21.93, 3
21.94, 4
21.95, 6
21.96, 2
21.97, 5
21.98, 6
21.99, 8
22, 5
22.01, 6
22.02, 10
22.03, 3
22.04, 4
22.05, 12
22.06, 7
22.07, 10
22.08, 6
22.09, 8
22.1, 4
22.11, 9
22.12, 3
22.13, 4
22.14, 3
22.15, 9
22.16, 10
22.17, 6
22.18, 3
22.19, 5
22.2, 5
22.21, 9
22.22, 4
22.23, 5
22.24, 4
22.25, 2
22.26, 6
22.27, 2
22.28, 7
22.29, 5
22.3, 8
22.31, 4
22.32, 9
22.33, 5
22.34, 7
22.35, 4
22.36, 6
22.37, 6
22.38, 7
22.39, 7
22.4, 4
22.41, 6
22.42, 2
22.43, 3
22.44, 1
22.45, 4
22.46, 6
22.47, 4
22.48, 2
22.49, 3
22.5, 7
22.51, 4
22.52, 7
22.53, 5
22.54, 10
22.55, 4
22.56, 2
22.57, 4
22.58, 0
22.59, 9
22.6, 9
22.61, 4
22.62, 9
22.63, 6
22.64, 6
22.65, 4
22.66, 12
22.67, 5
22.68, 8
22.69, 5
22.7, 5
22.71, 9
22.72, 8
22.73, 9
22.74, 8
22.75, 4
22.76, 6
22.77, 8
22.78, 5
22.79, 12
22.8, 6
22.81, 5
22.82, 6
22.83, 6
22.84, 4
22.85, 4
22.86, 10
22.87, 4
22.88, 4
22.89, 6
22.9, 10
22.91, 5
22.92, 6
22.93, 5
22.94, 8
22.95, 5
22.96, 4
22.97, 3
22.98, 6
22.99, 8
23, 7
23.01, 5
23.02, 8
23.03, 3
23.04, 3
23.05, 6
23.06, 1
23.07, 6
23.08, 5
23.09, 6
23.1, 8
23.11, 7
23.12, 8
23.13, 4
23.14, 3
23.15, 5
23.16, 6
23.17, 2
23.18, 8
23.19, 7
23.2, 6
23.21, 6
23.22, 9
23.23, 7
23.24, 4
23.25, 3
23.26, 4
23.27, 7
23.28, 5
23.29, 5
23.3, 2
23.31, 3
23.32, 5
23.33, 6
23.34, 6
23.35, 7
23.36, 7
23.37, 9
23.38, 2
23.39, 9
23.4, 6
23.41, 8
23.42, 6
23.43, 6
23.44, 5
23.45, 7
23.46, 7
23.47, 4
23.48, 7
23.49, 9
23.5, 10
23.51, 6
23.52, 7
23.53, 4
23.54, 8
23.55, 4
23.56, 7
23.57, 9
23.58, 6
23.59, 6
23.6, 10
23.61, 3
23.62, 7
23.63, 6
23.64, 5
23.65, 5
23.66, 8
23.67, 5
23.68, 10
23.69, 5
23.7, 5
23.71, 5
23.72, 3
23.73, 5
23.74, 7
23.75, 6
23.76, 4
23.77, 2
23.78, 10
23.79, 6
23.8, 2
23.81, 4
23.82, 15
23.83, 6
23.84, 8
23.85, 6
23.86, 13
23.87, 4
23.88, 4
23.89, 6
23.9, 9
23.91, 2
23.92, 8
23.93, 2
23.94, 1
23.95, 5
23.96, 4
23.97, 5
23.98, 5
23.99, 6
24, 6
24.01, 6
24.02, 7
24.03, 2
24.04, 4
24.05, 5
24.06, 6
24.07, 6
24.08, 2
24.09, 7
24.1, 5
24.11, 4
24.12, 5
24.13, 4
24.14, 8
24.15, 6
24.16, 6
24.17, 9
24.18, 8
24.19, 3
24.2, 6
24.21, 6
24.22, 5
24.23, 3
24.24, 3
24.25, 2
24.26, 3
24.27, 5
24.28, 1
24.29, 4
24.3, 5
24.31, 3
24.32, 11
24.33, 3
24.34, 7
24.35, 8
24.36, 4
24.37, 9
24.38, 7
24.39, 5
24.4, 5
24.41, 3
24.42, 5
24.43, 3
24.44, 5
24.45, 6
24.46, 4
24.47, 8
24.48, 9
24.49, 5
24.5, 2
24.51, 4
24.52, 6
24.53, 2
24.54, 9
24.55, 4
24.56, 8
24.57, 4
24.58, 3
24.59, 5
24.6, 2
24.61, 4
24.62, 2
24.63, 5
24.64, 6
24.65, 3
24.66, 4
24.67, 6
24.68, 0
24.69, 7
24.7, 1
24.71, 4
24.72, 3
24.73, 5
24.74, 3
24.75, 3
24.76, 3
24.77, 3
24.78, 5
24.79, 0
24.8, 6
24.81, 7
24.82, 4
24.83, 5
24.84, 5
24.85, 2
24.86, 4
24.87, 5
24.88, 3
24.89, 3
24.9, 2
24.91, 4
24.92, 6
24.93, 6
24.94, 6
24.95, 7
24.96, 1
24.97, 4
24.98, 5
24.99, 7
25, 3
25.01, 4
25.02, 4
25.03, 1
25.04, 7
25.05, 5
25.06, 6
25.07, 6
25.08, 8
25.09, 5
25.1, 4
25.11, 6
25.12, 7
25.13, 4
25.14, 4
25.15, 4
25.16, 8
25.17, 3
25.18, 4
25.19, 4
25.2, 4
25.21, 2
25.22, 3
25.23, 3
25.24, 4
25.25, 4
25.26, 7
25.27, 2
25.28, 5
25.29, 3
25.3, 9
25.31, 5
25.32, 12
25.33, 9
25.34, 9
25.35, 9
25.36, 9
25.37, 7
25.38, 8
25.39, 9
25.4, 9
25.41, 5
25.42, 4
25.43, 7
25.44, 6
25.45, 6
25.46, 8
25.47, 5
25.48, 11
25.49, 16
25.5, 13
25.51, 19
25.52, 29
25.53, 47
25.54, 38
25.55, 50
25.56, 53
25.57, 32
25.58, 20
25.59, 18
25.6, 12
25.61, 10
25.62, 12
25.63, 9
25.64, 10
25.65, 10
25.66, 6
25.67, 9
25.68, 4
25.69, 5
25.7, 4
25.71, 12
25.72, 4
25.73, 8
25.74, 6
25.75, 9
25.76, 9
25.77, 5
25.78, 7
25.79, 7
25.8, 6
25.81, 4
25.82, 3
25.83, 7
25.84, 6
25.85, 8
25.86, 7
25.87, 4
25.88, 2
25.89, 2
25.9, 7
25.91, 6
25.92, 8
25.93, 4
25.94, 5
25.95, 4
25.96, 5
25.97, 6
25.98, 4
25.99, 6
26, 5
26.01, 9
26.02, 6
26.03, 6
26.04, 8
26.05, 5
26.06, 4
26.07, 6
26.08, 3
26.09, 6
26.1, 4
26.11, 6
26.12, 7
26.13, 10
26.14, 5
26.15, 7
26.16, 4
26.17, 4
26.18, 9
26.19, 2
26.2, 6
26.21, 8
26.22, 7
26.23, 7
26.24, 5
26.25, 3
26.26, 6
26.27, 3
26.28, 6
26.29, 5
26.3, 9
26.31, 3
26.32, 1
26.33, 4
26.34, 6
26.35, 6
26.36, 5
26.37, 4
26.38, 4
26.39, 3
26.4, 4
26.41, 10
26.42, 3
26.43, 6
26.44, 6
26.45, 3
26.46, 6
26.47, 3
26.48, 4
26.49, 4
26.5, 3
26.51, 4
26.52, 7
26.53, 7
26.54, 5
26.55, 3
26.56, 6
26.57, 2
26.58, 4
26.59, 3
26.6, 4
26.61, 2
26.62, 3
26.63, 5
26.64, 9
26.65, 4
26.66, 8
26.67, 9
26.68, 4
26.69, 6
26.7, 4
26.71, 7
26.72, 5
26.73, 8
26.74, 8
26.75, 1
26.76, 7
26.77, 4
26.78, 3
26.79, 7
26.8, 7
26.81, 4
26.82, 5
26.83, 7
26.84, 4
26.85, 1
26.86, 4
26.87, 6
26.88, 6
26.89, 4
26.9, 5
26.91, 5
26.92, 2
26.93, 5
26.94, 3
26.95, 2
26.96, 4
26.97, 8
26.98, 4
26.99, 8
27, 4
27.01, 11
27.02, 1
27.03, 2
27.04, 4
27.05, 6
27.06, 6
27.07, 9
27.08, 5
27.09, 5
27.1, 13
27.11, 11
27.12, 7
27.13, 7
27.14, 4
27.15, 5
27.16, 9
27.17, 4
27.18, 5
27.19, 0
27.2, 7
27.21, 5
27.22, 6
27.23, 6
27.24, 4
27.25, 3
27.26, 5
27.27, 4
27.28, 3
27.29, 10
27.3, 9
27.31, 10
27.32, 9
27.33, 13
27.34, 8
27.35, 7
27.36, 9
27.37, 9
27.38, 7
27.39, 17
27.4, 9
27.41, 8
27.42, 12
27.43, 16
27.44, 11
27.45, 5
27.46, 10
27.47, 7
27.48, 11
27.49, 8
27.5, 8
27.51, 10
27.52, 7
27.53, 8
27.54, 12
27.55, 13
27.56, 14
27.57, 9
27.58, 12
27.59, 11
27.6, 9
27.61, 27
27.62, 17
27.63, 9
27.64, 11
27.65, 10
27.66, 11
27.67, 19
27.68, 8
27.69, 9
27.7, 11
27.71, 10
27.72, 7
27.73, 11
27.74, 8
27.75, 19
27.76, 8
27.77, 11
27.78, 12
27.79, 15
27.8, 17
27.81, 15
27.82, 12
27.83, 15
27.84, 7
27.85, 16
27.86, 15
27.87, 14
27.88, 10
27.89, 10
27.9, 13
27.91, 14
27.92, 19
27.93, 16
27.94, 22
27.95, 16
27.96, 20
27.97, 15
27.98, 11
27.99, 23
28, 18
28.01, 14
28.02, 24
28.03, 23
28.04, 28
28.05, 28
28.06, 31
28.07, 24
28.08, 26
28.09, 35
28.1, 53
28.11, 46
28.12, 53
28.13, 54
28.14, 54
28.15, 79
28.16, 77
28.17, 79
28.18, 97
28.19, 116
28.2, 113
28.21, 119
28.22, 121
28.23, 155
28.24, 195
28.25, 238
28.26, 298
28.27, 403
28.28, 563
28.29, 838
28.3, 1358
28.31, 1813
28.32, 2154
28.33, 1736
28.34, 1225
28.35, 837
28.36, 750
28.37, 849
28.38, 1075
28.39, 1152
28.4, 1009
28.41, 714
28.42, 407
28.43, 269
28.44, 204
28.45, 187
28.46, 146
28.47, 109
28.48, 107
28.49, 97
28.5, 84
28.51, 65
28.52, 73
28.53, 55
28.54, 55
28.55, 44
28.56, 48
28.57, 39
28.58, 47
28.59, 50
28.6, 33
28.61, 40
28.62, 31
28.63, 28
28.64, 28
28.65, 24
28.66, 21
28.67, 19
28.68, 28
28.69, 20
28.7, 29
28.71, 18
28.72, 19
28.73, 16
28.74, 14
28.75, 21
28.76, 16
28.77, 22
28.78, 18
28.79, 15
28.8, 18
28.81, 9
28.82, 11
28.83, 19
28.84, 5
28.85, 13
28.86, 17
28.87, 11
28.88, 14
28.89, 13
28.9, 12
28.91, 10
28.92, 4
28.93, 16
28.94, 12
28.95, 12
28.96, 12
28.97, 7
28.98, 10
28.99, 15
29, 11
29.01, 10
29.02, 11
29.03, 8
29.04, 14
29.05, 7
29.06, 8
29.07, 11
29.08, 6
29.09, 4
29.1, 9
29.11, 7
29.12, 4
29.13, 12
29.14, 4
29.15, 13
29.16, 7
29.17, 6
29.18, 7
29.19, 4
29.2, 10
29.21, 9
29.22, 12
29.23, 13
29.24, 12
29.25, 7
29.26, 5
29.27, 11
29.28, 7
29.29, 4
29.3, 7
29.31, 9
29.32, 7
29.33, 10
29.34, 8
29.35, 12
29.36, 9
29.37, 5
29.38, 6
29.39, 4
29.4, 11
29.41, 9
29.42, 5
29.43, 10
29.44, 11
29.45, 7
29.46, 10
29.47, 6
29.48, 7
29.49, 9
29.5, 15
29.51, 12
29.52, 8
29.53, 8
29.54, 6
29.55, 13
29.56, 9
29.57, 3
29.58, 12
29.59, 10
29.6, 8
29.61, 5
29.62, 8
29.63, 3
29.64, 7
29.65, 10
29.66, 9
29.67, 6
29.68, 3
29.69, 9
29.7, 6
29.71, 6
29.72, 3
29.73, 10
29.74, 11
29.75, 10
29.76, 6
29.77, 6
29.78, 2
29.79, 13
29.8, 7
29.81, 8
29.82, 4
29.83, 6
29.84, 10
29.85, 5
29.86, 10
29.87, 14
29.88, 8
29.89, 2
29.9, 5
29.91, 8
29.92, 6
29.93, 8
29.94, 6
29.95, 4
29.96, 3
29.97, 8
29.98, 3
29.99, 9
30, 6
30.01, 3
30.02, 5
30.03, 0
30.04, 8
30.05, 8
30.06, 3
30.07, 10
30.08, 5
30.09, 6
30.1, 7
30.11, 9
30.12, 7
30.13, 5
30.14, 9
30.15, 10
30.16, 8
30.17, 13
30.18, 7
30.19, 3
30.2, 5
30.21, 4
30.22, 8
30.23, 7
30.24, 5
30.25, 5
30.26, 5
30.27, 3
30.28, 10
30.29, 7
30.3, 5
30.31, 3
30.32, 4
30.33, 6
30.34, 9
30.35, 7
30.36, 9
30.37, 1
30.38, 7
30.39, 5
30.4, 5
30.41, 7
30.42, 6
30.43, 2
30.44, 8
30.45, 4
30.46, 9
30.47, 8
30.48, 8
30.49, 4
30.5, 12
30.51, 6
30.52, 7
30.53, 9
30.54, 8
30.55, 6
30.56, 6
30.57, 8
30.58, 4
30.59, 8
30.6, 8
30.61, 8
30.62, 8
30.63, 3
30.64, 4
30.65, 5
30.66, 8
30.67, 9
30.68, 4
30.69, 2
30.7, 4
30.71, 6
30.72, 8
30.73, 6
30.74, 5
30.75, 6
30.76, 7
30.77, 9
30.78, 4
30.79, 1
30.8, 7
30.81, 3
30.82, 8
30.83, 10
30.84, 7
30.85, 3
30.86, 4
30.87, 5
30.88, 2
30.89, 7
30.9, 4
30.91, 7
30.92, 4
30.93, 5
30.94, 6
30.95, 4
30.96, 2
30.97, 4
30.98, 6
30.99, 7
31, 8
31.01, 9
31.02, 7
31.03, 8
31.04, 6
31.05, 6
31.06, 3
31.07, 4
31.08, 9
31.09, 5
31.1, 10
31.11, 7
31.12, 6
31.13, 8
31.14, 5
31.15, 4
31.16, 7
31.17, 4
31.18, 4
31.19, 8
31.2, 9
31.21, 7
31.22, 4
31.23, 6
31.24, 8
31.25, 3
31.26, 3
31.27, 6
31.28, 5
31.29, 2
31.3, 5
31.31, 6
31.32, 5
31.33, 5
31.34, 4
31.35, 6
31.36, 5
31.37, 6
31.38, 5
31.39, 5
31.4, 5
31.41, 3
31.42, 4
31.43, 5
31.44, 7
31.45, 3
31.46, 4
31.47, 7
31.48, 3
31.49, 11
31.5, 4
31.51, 5
31.52, 4
31.53, 8
31.54, 4
31.55, 4
31.56, 7
31.57, 6
31.58, 5
31.59, 6
31.6, 8
31.61, 2
31.62, 5
31.63, 3
31.64, 3
31.65, 8
31.66, 6
31.67, 1
31.68, 2
31.69, 13
31.7, 8
31.71, 8
31.72, 4
31.73, 6
31.74, 6
31.75, 7
31.76, 7
31.77, 5
31.78, 8
31.79, 3
31.8, 8
31.81, 7
31.82, 4
31.83, 5
31.84, 3
31.85, 1
31.86, 4
31.87, 4
31.88, 5
31.89, 3
31.9, 6
31.91, 5
31.92, 7
31.93, 0
31.94, 12
31.95, 5
31.96, 2
31.97, 5
31.98, 2
31.99, 5
32, 8
32.01, 8
32.02, 5
32.03, 5
32.04, 8
32.05, 4
32.06, 7
32.07, 6
32.08, 5
32.09, 1
32.1, 8
32.11, 9
32.12, 4
32.13, 3
32.14, 4
32.15, 9
32.16, 7
32.17, 3
32.18, 3
32.19, 9
32.2, 3
32.21, 5
32.22, 5
32.23, 5
32.24, 6
32.25, 2
32.26, 9
32.27, 6
32.28, 7
32.29, 5
32.3, 5
32.31, 7
32.32, 8
32.33, 7
32.34, 4
32.35, 5
32.36, 6
32.37, 5
32.38, 5
32.39, 4
32.4, 6
32.41, 3
32.42, 6
32.43, 4
32.44, 4
32.45, 5
32.46, 8
32.47, 8
32.48, 9
32.49, 3
32.5, 3
32.51, 4
32.52, 2
32.53, 7
32.54, 5
32.55, 5
32.56, 6
32.57, 3
32.58, 3
32.59, 5
32.6, 3
32.61, 3
32.62, 4
32.63, 5
32.64, 9
32.65, 8
32.66, 1
32.67, 6
32.68, 4
32.69, 1
32.7, 7
32.71, 6
32.72, 3
32.73, 8
32.74, 7
32.75, 2
32.76, 7
32.77, 8
32.78, 3
32.79, 10
32.8, 5
32.81, 11
32.82, 10
32.83, 13
32.84, 10
32.85, 10
32.86, 7
32.87, 12
32.88, 4
32.89, 4
32.9, 4
32.91, 7
32.92, 8
32.93, 4
32.94, 6
32.95, 5
32.96, 6
32.97, 3
32.98, 5
32.99, 3
33, 4
33.01, 5
33.02, 6
33.03, 7
33.04, 4
33.05, 8
33.06, 3
33.07, 8
33.08, 7
33.09, 6
33.1, 6
33.11, 3
33.12, 5
33.13, 5
33.14, 3
33.15, 5
33.16, 5
33.17, 7
33.18, 6
33.19, 6
33.2, 6
33.21, 6
33.22, 5
33.23, 6
33.24, 8
33.25, 3
33.26, 4
33.27, 6
33.28, 4
33.29, 4
33.3, 5
33.31, 4
33.32, 2
33.33, 6
33.34, 2
33.35, 5
33.36, 1
33.37, 6
33.38, 9
33.39, 5
33.4, 4
33.41, 4
33.42, 6
33.43, 3
33.44, 4
33.45, 4
33.46, 5
33.47, 3
33.48, 6
33.49, 7
33.5, 7
33.51, 6
33.52, 5
33.53, 1
33.54, 1
33.55, 5
33.56, 6
33.57, 4
33.58, 6
33.59, 3
33.6, 5
33.61, 5
33.62, 4
33.63, 8
33.64, 5
33.65, 3
33.66, 8
33.67, 6
33.68, 4
33.69, 5
33.7, 3
33.71, 5
33.72, 4
33.73, 7
33.74, 5
33.75, 6
33.76, 5
33.77, 5
33.78, 7
33.79, 3
33.8, 3
33.81, 8
33.82, 7
33.83, 7
33.84, 2
33.85, 1
33.86, 2
33.87, 7
33.88, 3
33.89, 0
33.9, 7
33.91, 3
33.92, 2
33.93, 2
33.94, 7
33.95, 2
33.96, 5
33.97, 10
33.98, 2
33.99, 4
34, 4
34.01, 1
34.02, 3
34.03, 5
34.04, 7
34.05, 3
34.06, 6
34.07, 6
34.08, 4
34.09, 3
34.1, 8
34.11, 2
34.12, 6
34.13, 5
34.14, 4
34.15, 8
34.16, 9
34.17, 5
34.18, 3
34.19, 5
34.2, 6
34.21, 5
34.22, 4
34.23, 3
34.24, 4
34.25, 5
34.26, 5
34.27, 5
34.28, 4
34.29, 2
34.3, 7
34.31, 7
34.32, 4
34.33, 3
34.34, 5
34.35, 2
34.36, 5
34.37, 6
34.38, 4
34.39, 7
34.4, 4
34.41, 6
34.42, 7
34.43, 4
34.44, 2
34.45, 2
34.46, 1
34.47, 7
34.48, 2
34.49, 5
34.5, 7
34.51, 4
34.52, 7
34.53, 3
34.54, 2
34.55, 1
34.56, 6
34.57, 3
34.58, 3
34.59, 5
34.6, 5
34.61, 5
34.62, 6
34.63, 3
34.64, 5
34.65, 2
34.66, 6
34.67, 2
34.68, 3
34.69, 6
34.7, 4
34.71, 4
34.72, 6
34.73, 3
34.74, 9
34.75, 6
34.76, 2
34.77, 6
34.78, 6
34.79, 3
34.8, 4
34.81, 1
34.82, 5
34.83, 5
34.84, 4
34.85, 4
34.86, 5
34.87, 1
34.88, 0
34.89, 2
34.9, 7
34.91, 5
34.92, 5
34.93, 4
34.94, 7
34.95, 4
34.96, 4
34.97, 3
34.98, 3
34.99, 5
35, 4
35.01, 1
35.02, 5
35.03, 5
35.04, 4
35.05, 3
35.06, 4
35.07, 5
35.08, 7
35.09, 3
35.1, 4
35.11, 2
35.12, 2
35.13, 7
35.14, 9
35.15, 4
35.16, 4
35.17, 4
35.18, 5
35.19, 5
35.2, 6
35.21, 2
35.22, 2
35.23, 10
35.24, 3
35.25, 5
35.26, 5
35.27, 5
35.28, 13
35.29, 2
35.3, 5
35.31, 9
35.32, 2
35.33, 3
35.34, 3
35.35, 3
35.36, 4
35.37, 5
35.38, 3
35.39, 4
35.4, 2
35.41, 4
35.42, 6
35.43, 2
35.44, 7
35.45, 2
35.46, 3
35.47, 5
35.48, 3
35.49, 5
35.5, 5
35.51, 7
35.52, 8
35.53, 3
35.54, 2
35.55, 10
35.56, 3
35.57, 2
35.58, 6
35.59, 1
35.6, 4
35.61, 7
35.62, 4
35.63, 2
35.64, 2
35.65, 8
35.66, 4
35.67, 3
35.68, 3
35.69, 3
35.7, 4
35.71, 4
35.72, 0
35.73, 6
35.74, 4
35.75, 3
35.76, 3
35.77, 2
35.78, 6
35.79, 4
35.8, 7
35.81, 3
35.82, 7
35.83, 6
35.84, 0
35.85, 3
35.86, 9
35.87, 3
35.88, 10
35.89, 5
35.9, 2
35.91, 5
35.92, 1
35.93, 3
35.94, 5
35.95, 5
35.96, 6
35.97, 5
35.98, 2
35.99, 7
36, 7
36.01, 6
36.02, 3
36.03, 3
36.04, 4
36.05, 3
36.06, 1
36.07, 4
36.08, 5
36.09, 0
36.1, 11
36.11, 2
36.12, 3
36.13, 3
36.14, 6
36.15, 2
36.16, 2
36.17, 1
36.18, 3
36.19, 4
36.2, 3
36.21, 4
36.22, 6
36.23, 1
36.24, 4
36.25, 6
36.26, 4
36.27, 5
36.28, 6
36.29, 3
36.3, 1
36.31, 4
36.32, 4
36.33, 4
36.34, 2
36.35, 4
36.36, 7
36.37, 9
36.38, 8
36.39, 3
36.4, 3
36.41, 6
36.42, 5
36.43, 5
36.44, 4
36.45, 4
36.46, 2
36.47, 9
36.48, 2
36.49, 7
36.5, 2
36.51, 4
36.52, 8
36.53, 5
36.54, 4
36.55, 6
36.56, 7
36.57, 5
36.58, 4
36.59, 3
36.6, 4
36.61, 6
36.62, 6
36.63, 1
36.64, 5
36.65, 8
36.66, 7
36.67, 6
36.68, 8
36.69, 9
36.7, 3
36.71, 8
36.72, 5
36.73, 2
36.74, 6
36.75, 4
36.76, 5
36.77, 7
36.78, 3
36.79, 10
36.8, 4
36.81, 7
36.82, 6
36.83, 4
36.84, 3
36.85, 2
36.86, 2
36.87, 7
36.88, 2
36.89, 4
36.9, 4
36.91, 6
36.92, 1
36.93, 3
36.94, 2
36.95, 3
36.96, 3
36.97, 2
36.98, 6
36.99, 4
37, 4
37.01, 5
37.02, 6
37.03, 5
37.04, 1
37.05, 8
37.06, 2
37.07, 5
37.08, 8
37.09, 7
37.1, 2
37.11, 4
37.12, 6
37.13, 4
37.14, 4
37.15, 4
37.16, 7
37.17, 2
37.18, 1
37.19, 4
37.2, 4
37.21, 3
37.22, 5
37.23, 7
37.24, 4
37.25, 8
37.26, 2
37.27, 6
37.28, 3
37.29, 3
37.3, 4
37.31, 9
37.32, 4
37.33, 2
37.34, 5
37.35, 3
37.36, 2
37.37, 4
37.38, 0
37.39, 3
37.4, 4
37.41, 2
37.42, 4
37.43, 5
37.44, 5
37.45, 4
37.46, 7
37.47, 6
37.48, 1
37.49, 4
37.5, 4
37.51, 4
37.52, 9
37.53, 2
37.54, 2
37.55, 2
37.56, 4
37.57, 3
37.58, 6
37.59, 5
37.6, 5
37.61, 8
37.62, 7
37.63, 5
37.64, 6
37.65, 3
37.66, 6
37.67, 4
37.68, 6
37.69, 3
37.7, 4
37.71, 2
37.72, 4
37.73, 2
37.74, 5
37.75, 7
37.76, 6
37.77, 10
37.78, 3
37.79, 4
37.8, 2
37.81, 3
37.82, 4
37.83, 4
37.84, 8
37.85, 6
37.86, 3
37.87, 3
37.88, 1
37.89, 2
37.9, 6
37.91, 1
37.92, 8
37.93, 4
37.94, 2
37.95, 4
37.96, 2
37.97, 2
37.98, 2
37.99, 0
38, 5
38.01, 9
38.02, 6
38.03, 4
38.04, 2
38.05, 6
38.06, 5
38.07, 2
38.08, 5
38.09, 6
38.1, 3
38.11, 4
38.12, 2
38.13, 6
38.14, 8
38.15, 2
38.16, 1
38.17, 2
38.18, 10
38.19, 5
38.2, 2
38.21, 1
38.22, 5
38.23, 4
38.24, 5
38.25, 2
38.26, 5
38.27, 3
38.28, 2
38.29, 2
38.3, 5
38.31, 6
38.32, 5
38.33, 5
38.34, 3
38.35, 3
38.36, 4
38.37, 5
38.38, 5
38.39, 2
38.4, 6
38.41, 5
38.42, 6
38.43, 3
38.44, 3
38.45, 4
38.46, 4
38.47, 6
38.48, 4
38.49, 6
38.5, 7
38.51, 5
38.52, 6
38.53, 4
38.54, 3
38.55, 5
38.56, 3
38.57, 5
38.58, 5
38.59, 8
38.6, 0
38.61, 10
38.62, 3
38.63, 5
38.64, 7
38.65, 5
38.66, 5
38.67, 5
38.68, 5
38.69, 5
38.7, 2
38.71, 6
38.72, 3
38.73, 9
38.74, 4
38.75, 3
38.76, 3
38.77, 6
38.78, 3
38.79, 5
38.8, 6
38.81, 6
38.82, 3
38.83, 7
38.84, 9
38.85, 4
38.86, 5
38.87, 1
38.88, 6
38.89, 3
38.9, 10
38.91, 6
38.92, 3
38.93, 6
38.94, 4
38.95, 5
38.96, 2
38.97, 6
38.98, 5
38.99, 2
39, 2
39.01, 4
39.02, 6
39.03, 2
39.04, 3
39.05, 1
39.06, 1
39.07, 4
39.08, 4
39.09, 1
39.1, 3
39.11, 3
39.12, 8
39.13, 5
39.14, 2
39.15, 5
39.16, 5
39.17, 3
39.18, 5
39.19, 8
39.2, 7
39.21, 3
39.22, 3
39.23, 6
39.24, 1
39.25, 7
39.26, 3
39.27, 0
39.28, 4
39.29, 2
39.3, 5
39.31, 2
39.32, 2
39.33, 5
39.34, 5
39.35, 3
39.36, 4
39.37, 2
39.38, 6
39.39, 1
39.4, 4
39.41, 7
39.42, 6
39.43, 3
39.44, 4
39.45, 3
39.46, 2
39.47, 4
39.48, 2
39.49, 4
39.5, 2
39.51, 3
39.52, 2
39.53, 1
39.54, 2
39.55, 2
39.56, 5
39.57, 7
39.58, 1
39.59, 4
39.6, 4
39.61, 7
39.62, 3
39.63, 9
39.64, 5
39.65, 5
39.66, 6
39.67, 8
39.68, 5
39.69, 3
39.7, 4
39.71, 3
39.72, 3
39.73, 4
39.74, 5
39.75, 2
39.76, 5
39.77, 6
39.78, 5
39.79, 1
39.8, 4
39.81, 3
39.82, 2
39.83, 4
39.84, 3
39.85, 3
39.86, 3
39.87, 1
39.88, 1
39.89, 4
39.9, 3
39.91, 1
39.92, 3
39.93, 7
39.94, 5
39.95, 5
39.96, 8
39.97, 8
39.98, 5
39.99, 3
40, 4
40.01, 6
40.02, 0
40.03, 5
40.04, 6
40.05, 3
40.06, 3
40.07, 1
40.08, 3
40.09, 8
40.1, 6
40.11, 1
40.12, 7
40.13, 3
40.14, 3
40.15, 3
40.16, 4
40.17, 3
40.18, 4
40.19, 3
40.2, 2
40.21, 5
40.22, 8
40.23, 5
40.24, 4
40.25, 1
40.26, 1
40.27, 5
40.28, 9
40.29, 1
40.3, 4
40.31, 5
40.32, 4
40.33, 6
40.34, 3
40.35, 4
40.36, 4
40.37, 5
40.38, 2
40.39, 6
40.4, 3
40.41, 8
40.42, 7
40.43, 9
40.44, 5
40.45, 7
40.46, 4
40.47, 2
40.48, 6
40.49, 2
40.5, 2
40.51, 6
40.52, 3
40.53, 1
40.54, 2
40.55, 5
40.56, 5
40.57, 4
40.58, 3
40.59, 4
40.6, 4
40.61, 4
40.62, 3
40.63, 2
40.64, 6
40.65, 3
40.66, 4
40.67, 4
40.68, 6
40.69, 6
40.7, 6
40.71, 5
40.72, 4
40.73, 6
40.74, 5
40.75, 4
40.76, 4
40.77, 3
40.78, 7
40.79, 5
40.8, 3
40.81, 6
40.82, 7
40.83, 5
40.84, 3
40.85, 3
40.86, 3
40.87, 7
40.88, 3
40.89, 3
40.9, 4
40.91, 6
40.92, 1
40.93, 5
40.94, 4
40.95, 4
40.96, 4
40.97, 2
40.98, 3
40.99, 5
41, 2
41.01, 5
41.02, 5
41.03, 5
41.04, 9
41.05, 3
41.06, 5
41.07, 7
41.08, 4
41.09, 9
41.1, 4
41.11, 5
41.12, 3
41.13, 7
41.14, 2
41.15, 4
41.16, 6
41.17, 3
41.18, 3
41.19, 4
41.2, 2
41.21, 2
41.22, 5
41.23, 4
41.24, 5
41.25, 6
41.26, 5
41.27, 2
41.28, 5
41.29, 2
41.3, 1
41.31, 5
41.32, 9
41.33, 2
41.34, 5
41.35, 5
41.36, 8
41.37, 4
41.38, 4
41.39, 3
41.4, 3
41.41, 4
41.42, 6
41.43, 4
41.44, 4
41.45, 2
41.46, 6
41.47, 5
41.48, 1
41.49, 3
41.5, 1
41.51, 3
41.52, 3
41.53, 7
41.54, 6
41.55, 0
41.56, 1
41.57, 2
41.58, 2
41.59, 5
41.6, 12
41.61, 4
41.62, 3
41.63, 3
41.64, 5
41.65, 4
41.66, 2
41.67, 8
41.68, 1
41.69, 7
41.7, 2
41.71, 2
41.72, 5
41.73, 5
41.74, 3
41.75, 4
41.76, 1
41.77, 4
41.78, 7
41.79, 1
41.8, 4
41.81, 7
41.82, 5
41.83, 7
41.84, 5
41.85, 2
41.86, 5
41.87, 2
41.88, 3
41.89, 3
41.9, 2
41.91, 2
41.92, 5
41.93, 6
41.94, 5
41.95, 2
41.96, 9
41.97, 4
41.98, 1
41.99, 4
42, 5
42.01, 1
42.02, 4
42.03, 2
42.04, 5
42.05, 2
42.06, 0
42.07, 5
42.08, 3
42.09, 5
42.1, 2
42.11, 5
42.12, 3
42.13, 6
42.14, 6
42.15, 5
42.16, 5
42.17, 5
42.18, 6
42.19, 4
42.2, 11
42.21, 7
42.22, 9
42.23, 9
42.24, 9
42.25, 8
42.26, 12
42.27, 16
42.28, 19
42.29, 22
42.3, 19
42.31, 27
42.32, 17
42.33, 11
42.34, 10
42.35, 11
42.36, 9
42.37, 12
42.38, 4
42.39, 7
42.4, 9
42.41, 7
42.42, 2
42.43, 7
42.44, 11
42.45, 14
42.46, 4
42.47, 7
42.48, 4
42.49, 3
42.5, 5
42.51, 4
42.52, 4
42.53, 3
42.54, 10
42.55, 4
42.56, 4
42.57, 9
42.58, 9
42.59, 13
42.6, 5
42.61, 2
42.62, 4
42.63, 5
42.64, 8
42.65, 5
42.66, 4
42.67, 5
42.68, 5
42.69, 1
42.7, 1
42.71, 6
42.72, 5
42.73, 0
42.74, 6
42.75, 4
42.76, 5
42.77, 4
42.78, 1
42.79, 5
42.8, 6
42.81, 5
42.82, 4
42.83, 2
42.84, 3
42.85, 5
42.86, 8
42.87, 2
42.88, 7
42.89, 2
42.9, 1
42.91, 7
42.92, 5
42.93, 5
42.94, 4
42.95, 5
42.96, 8
42.97, 2
42.98, 3
42.99, 4
43, 5
43.01, 6
43.02, 3
43.03, 4
43.04, 6
43.05, 4
43.06, 4
43.07, 4
43.08, 6
43.09, 6
43.1, 8
43.11, 2
43.12, 3
43.13, 6
43.14, 4
43.15, 5
43.16, 6
43.17, 5
43.18, 3
43.19, 4
43.2, 3
43.21, 4
43.22, 3
43.23, 7
43.24, 7
43.25, 8
43.26, 7
43.27, 1
43.28, 2
43.29, 6
43.3, 1
43.31, 2
43.32, 6
43.33, 8
43.34, 6
43.35, 4
43.36, 4
43.37, 4
43.38, 9
43.39, 3
43.4, 4
43.41, 8
43.42, 7
43.43, 4
43.44, 4
43.45, 4
43.46, 6
43.47, 3
43.48, 4
43.49, 5
43.5, 6
43.51, 3
43.52, 7
43.53, 6
43.54, 5
43.55, 5
43.56, 5
43.57, 5
43.58, 3
43.59, 3
43.6, 3
43.61, 2
43.62, 6
43.63, 4
43.64, 3
43.65, 5
43.66, 7
43.67, 5
43.68, 5
43.69, 6
43.7, 3
43.71, 5
43.72, 3
43.73, 1
43.74, 3
43.75, 3
43.76, 7
43.77, 5
43.78, 8
43.79, 5
43.8, 2
43.81, 5
43.82, 1
43.83, 8
43.84, 5
43.85, 6
43.86, 4
43.87, 5
43.88, 1
43.89, 2
43.9, 3
43.91, 5
43.92, 8
43.93, 5
43.94, 3
43.95, 5
43.96, 11
43.97, 6
43.98, 5
43.99, 6
44, 8
44.01, 4
44.02, 3
44.03, 7
44.04, 2
44.05, 6
44.06, 4
44.07, 11
44.08, 7
44.09, 10
44.1, 5
44.11, 6
44.12, 7
44.13, 0
44.14, 6
44.15, 6
44.16, 8
44.17, 4
44.18, 3
44.19, 6
44.2, 3
44.21, 8
44.22, 4
44.23, 5
44.24, 3
44.25, 5
44.26, 1
44.27, 6
44.28, 6
44.29, 7
44.3, 3
44.31, 6
44.32, 6
44.33, 4
44.34, 13
44.35, 4
44.36, 5
44.37, 3
44.38, 3
44.39, 7
44.4, 5
44.41, 6
44.42, 2
44.43, 5
44.44, 4
44.45, 5
44.46, 6
44.47, 7
44.48, 4
44.49, 6
44.5, 6
44.51, 6
44.52, 9
44.53, 9
44.54, 6
44.55, 3
44.56, 5
44.57, 2
44.58, 5
44.59, 3
44.6, 4
44.61, 1
44.62, 6
44.63, 5
44.64, 6
44.65, 4
44.66, 6
44.67, 5
44.68, 5
44.69, 4
44.7, 3
44.71, 10
44.72, 2
44.73, 10
44.74, 7
44.75, 1
44.76, 10
44.77, 4
44.78, 6
44.79, 8
44.8, 6
44.81, 2
44.82, 4
44.83, 6
44.84, 5
44.85, 3
44.86, 1
44.87, 6
44.88, 4
44.89, 2
44.9, 3
44.91, 4
44.92, 5
44.93, 8
44.94, 1
44.95, 3
44.96, 5
44.97, 6
44.98, 3
44.99, 7
45, 4
45.01, 4
45.02, 9
45.03, 7
45.04, 7
45.05, 3
45.06, 5
45.07, 5
45.08, 8
45.09, 8
45.1, 6
45.11, 1
45.12, 5
45.13, 3
45.14, 6
45.15, 3
45.16, 7
45.17, 5
45.18, 11
45.19, 10
45.2, 1
45.21, 3
45.22, 6
45.23, 5
45.24, 5
45.25, 7
45.26, 6
45.27, 8
45.28, 9
45.29, 6
45.3, 4
45.31, 5
45.32, 6
45.33, 4
45.34, 8
45.35, 10
45.36, 7
45.37, 6
45.38, 3
45.39, 6
45.4, 8
45.41, 3
45.42, 8
45.43, 7
45.44, 4
45.45, 10
45.46, 9
45.47, 9
45.48, 12
45.49, 7
45.5, 7
45.51, 6
45.52, 8
45.53, 8
45.54, 6
45.55, 9
45.56, 5
45.57, 5
45.58, 4
45.59, 3
45.6, 5
45.61, 8
45.62, 16
45.63, 9
45.64, 2
45.65, 3
45.66, 12
45.67, 14
45.68, 6
45.69, 9
45.7, 4
45.71, 4
45.72, 6
45.73, 7
45.74, 6
45.75, 12
45.76, 6
45.77, 12
45.78, 7
45.79, 6
45.8, 7
45.81, 11
45.82, 8
45.83, 5
45.84, 12
45.85, 7
45.86, 8
45.87, 4
45.88, 8
45.89, 5
45.9, 3
45.91, 4
45.92, 8
45.93, 8
45.94, 11
45.95, 11
45.96, 11
45.97, 3
45.98, 7
45.99, 6
46, 5
46.01, 9
46.02, 4
46.03, 13
46.04, 7
46.05, 10
46.06, 9
46.07, 6
46.08, 9
46.09, 9
46.1, 10
46.11, 11
46.12, 8
46.13, 8
46.14, 11
46.15, 5
46.16, 8
46.17, 9
46.18, 9
46.19, 8
46.2, 10
46.21, 9
46.22, 6
46.23, 8
46.24, 5
46.25, 6
46.26, 13
46.27, 12
46.28, 11
46.29, 9
46.3, 11
46.31, 8
46.32, 11
46.33, 8
46.34, 16
46.35, 11
46.36, 9
46.37, 15
46.38, 7
46.39, 15
46.4, 9
46.41, 12
46.42, 10
46.43, 11
46.44, 11
46.45, 11
46.46, 4
46.47, 11
46.48, 16
46.49, 15
46.5, 11
46.51, 17
46.52, 16
46.53, 10
46.54, 18
46.55, 6
46.56, 10
46.57, 13
46.58, 17
46.59, 20
46.6, 20
46.61, 16
46.62, 16
46.63, 14
46.64, 12
46.65, 20
46.66, 25
46.67, 18
46.68, 23
46.69, 29
46.7, 26
46.71, 29
46.72, 20
46.73, 30
46.74, 27
46.75, 34
46.76, 37
46.77, 31
46.78, 31
46.79, 37
46.8, 49
46.81, 54
46.82, 48
46.83, 44
46.84, 50
46.85, 65
46.86, 82
46.87, 61
46.88, 73
46.89, 62
46.9, 88
46.91, 79
46.92, 96
46.93, 110
46.94, 123
46.95, 118
46.96, 138
46.97, 161
46.98, 188
46.99, 256
47, 298
47.01, 392
47.02, 572
47.03, 847
47.04, 1198
47.05, 1590
47.06, 1591
47.07, 1271
47.08, 875
47.09, 516
47.1, 407
47.11, 307
47.12, 327
47.13, 347
47.14, 409
47.15, 472
47.16, 659
47.17, 794
47.18, 850
47.19, 776
47.2, 573
47.21, 366
47.22, 277
47.23, 191
47.24, 160
47.25, 129
47.26, 99
47.27, 91
47.28, 91
47.29, 90
47.3, 64
47.31, 72
47.32, 72
47.33, 61
47.34, 57
47.35, 49
47.36, 42
47.37, 44
47.38, 46
47.39, 33
47.4, 31
47.41, 31
47.42, 28
47.43, 34
47.44, 23
47.45, 33
47.46, 17
47.47, 20
47.48, 27
47.49, 18
47.5, 20
47.51, 31
47.52, 33
47.53, 21
47.54, 20
47.55, 25
47.56, 26
47.57, 17
47.58, 15
47.59, 13
47.6, 15
47.61, 18
47.62, 15
47.63, 20
47.64, 10
47.65, 22
47.66, 14
47.67, 20
47.68, 18
47.69, 18
47.7, 14
47.71, 14
47.72, 14
47.73, 13
47.74, 13
47.75, 6
47.76, 15
47.77, 15
47.78, 15
47.79, 9
47.8, 7
47.81, 13
47.82, 9
47.83, 22
47.84, 16
47.85, 16
47.86, 4
47.87, 9
47.88, 7
47.89, 14
47.9, 4
47.91, 9
47.92, 7
47.93, 12
47.94, 13
47.95, 9
47.96, 6
47.97, 15
47.98, 13
47.99, 12
48, 16
48.01, 10
48.02, 1
48.03, 8
48.04, 10
48.05, 15
48.06, 4
48.07, 6
48.08, 8
48.09, 6
48.1, 8
48.11, 9
48.12, 8
48.13, 6
48.14, 6
48.15, 11
48.16, 9
48.17, 7
48.18, 6
48.19, 3
48.2, 11
48.21, 18
48.22, 7
48.23, 9
48.24, 9
48.25, 8
48.26, 17
48.27, 4
48.28, 16
48.29, 11
48.3, 9
48.31, 11
48.32, 7
48.33, 11
48.34, 7
48.35, 6
48.36, 7
48.37, 6
48.38, 6
48.39, 7
48.4, 6
48.41, 8
48.42, 11
48.43, 5
48.44, 9
48.45, 10
48.46, 2
48.47, 8
48.48, 8
48.49, 5
48.5, 4
48.51, 7
48.52, 7
48.53, 7
48.54, 8
48.55, 9
48.56, 5
48.57, 4
48.58, 8
48.59, 8
48.6, 5
48.61, 8
48.62, 8
48.63, 8
48.64, 7
48.65, 8
48.66, 4
48.67, 3
48.68, 6
48.69, 10
48.7, 5
48.71, 12
48.72, 6
48.73, 13
48.74, 7
48.75, 9
48.76, 7
48.77, 8
48.78, 10
48.79, 8
48.8, 11
48.81, 5
48.82, 7
48.83, 7
48.84, 9
48.85, 6
48.86, 6
48.87, 3
48.88, 9
48.89, 10
48.9, 8
48.91, 7
48.92, 8
48.93, 5
48.94, 7
48.95, 5
48.96, 14
48.97, 10
48.98, 6
48.99, 7
49, 11
49.01, 14
49.02, 6
49.03, 3
49.04, 8
49.05, 10
49.06, 7
49.07, 11
49.08, 11
49.09, 7
49.1, 10
49.11, 6
49.12, 8
49.13, 6
49.14, 6
49.15, 5
49.16, 10
49.17, 9
49.18, 6
49.19, 5
49.2, 8
49.21, 9
49.22, 7
49.23, 7
49.24, 7
49.25, 6
49.26, 12
49.27, 5
49.28, 2
49.29, 8
49.3, 8
49.31, 14
49.32, 6
49.33, 7
49.34, 4
49.35, 7
49.36, 13
49.37, 8
49.38, 4
49.39, 9
49.4, 12
49.41, 12
49.42, 7
49.43, 6
49.44, 4
49.45, 5
49.46, 4
49.47, 7
49.48, 10
49.49, 7
49.5, 10
49.51, 10
49.52, 10
49.53, 8
49.54, 4
49.55, 7
49.56, 6
49.57, 5
49.58, 12
49.59, 9
49.6, 12
49.61, 5
49.62, 7
49.63, 10
49.64, 6
49.65, 8
49.66, 7
49.67, 7
49.68, 6
49.69, 7
49.7, 7
49.71, 4
49.72, 7
49.73, 9
49.74, 4
49.75, 7
49.76, 6
49.77, 7
49.78, 10
49.79, 7
49.8, 4
49.81, 7
49.82, 8
49.83, 5
49.84, 7
49.85, 14
49.86, 7
49.87, 10
49.88, 10
49.89, 11
49.9, 10
49.91, 10
49.92, 5
49.93, 9
49.94, 15
49.95, 6
49.96, 6
49.97, 7
49.98, 12
49.99, 10
50, 14
50.01, 16
50.02, 22
50.03, 21
50.04, 27
50.05, 26
50.06, 23
50.07, 20
50.08, 12
50.09, 6
50.1, 11
50.11, 8
50.12, 15
50.13, 9
50.14, 6
50.15, 10
50.16, 14
50.17, 9
50.18, 7
50.19, 7
50.2, 7
50.21, 10
50.22, 8
50.23, 2
50.24, 11
50.25, 4
50.26, 7
50.27, 8
50.28, 6
50.29, 2
50.3, 14
50.31, 6
50.32, 4
50.33, 6
50.34, 2
50.35, 4
50.36, 5
50.37, 9
50.38, 7
50.39, 4
50.4, 5
50.41, 7
50.42, 3
50.43, 3
50.44, 1
50.45, 8
50.46, 4
50.47, 9
50.48, 8
50.49, 9
50.5, 9
50.51, 9
50.52, 4
50.53, 3
50.54, 7
50.55, 4
50.56, 6
50.57, 7
50.58, 4
50.59, 1
50.6, 3
50.61, 1
50.62, 6
50.63, 12
50.64, 8
50.65, 5
50.66, 9
50.67, 4
50.68, 6
50.69, 11
50.7, 7
50.71, 3
50.72, 3
50.73, 8
50.74, 9
50.75, 8
50.76, 9
50.77, 7
50.78, 8
50.79, 5
50.8, 6
50.81, 6
50.82, 7
50.83, 9
50.84, 6
50.85, 8
50.86, 7
50.87, 6
50.88, 6
50.89, 7
50.9, 5
50.91, 2
50.92, 5
50.93, 5
50.94, 4
50.95, 8
50.96, 5
50.97, 8
50.98, 4
50.99, 3
51, 13
51.01, 5
51.02, 1
51.03, 3
51.04, 5
51.05, 4
51.06, 6
51.07, 6
51.08, 3
51.09, 8
51.1, 7
51.11, 4
51.12, 7
51.13, 4
51.14, 6
51.15, 8
51.16, 6
51.17, 7
51.18, 8
51.19, 8
51.2, 5
51.21, 5
51.22, 4
51.23, 8
51.24, 5
51.25, 5
51.26, 10
51.27, 7
51.28, 3
51.29, 2
51.3, 5
51.31, 3
51.32, 7
51.33, 6
51.34, 3
51.35, 4
51.36, 4
51.37, 6
51.38, 3
51.39, 7
51.4, 2
51.41, 4
51.42, 4
51.43, 5
51.44, 7
51.45, 4
51.46, 6
51.47, 4
51.48, 5
51.49, 3
51.5, 7
51.51, 8
51.52, 6
51.53, 8
51.54, 7
51.55, 4
51.56, 4
51.57, 5
51.58, 6
51.59, 2
51.6, 10
51.61, 2
51.62, 3
51.63, 2
51.64, 3
51.65, 7
51.66, 11
51.67, 3
51.68, 4
51.69, 6
51.7, 8
51.71, 4
51.72, 5
51.73, 2
51.74, 6
51.75, 3
51.76, 2
51.77, 2
51.78, 3
51.79, 6
51.8, 3
51.81, 4
51.82, 1
51.83, 7
51.84, 4
51.85, 6
51.86, 9
51.87, 6
51.88, 3
51.89, 4
51.9, 5
51.91, 5
51.92, 5
51.93, 5
51.94, 4
51.95, 1
51.96, 8
51.97, 4
51.98, 8
51.99, 5
52, 6
52.01, 2
52.02, 2
52.03, 1
52.04, 7
52.05, 4
52.06, 2
52.07, 5
52.08, 1
52.09, 9
52.1, 9
52.11, 4
52.12, 4
52.13, 4
52.14, 4
52.15, 2
52.16, 7
52.17, 6
52.18, 4
52.19, 7
52.2, 2
52.21, 3
52.22, 6
52.23, 2
52.24, 4
52.25, 6
52.26, 9
52.27, 3
52.28, 4
52.29, 5
52.3, 4
52.31, 4
52.32, 9
52.33, 3
52.34, 8
52.35, 5
52.36, 2
52.37, 5
52.38, 1
52.39, 7
52.4, 4
52.41, 3
52.42, 3
52.43, 6
52.44, 4
52.45, 7
52.46, 5
52.47, 1
52.48, 5
52.49, 6
52.5, 8
52.51, 3
52.52, 2
52.53, 4
52.54, 10
52.55, 6
52.56, 6
52.57, 7
52.58, 3
52.59, 7
52.6, 3
52.61, 2
52.62, 5
52.63, 8
52.64, 1
52.65, 4
52.66, 9
52.67, 5
52.68, 5
52.69, 4
52.7, 6
52.71, 2
52.72, 6
52.73, 6
52.74, 5
52.75, 2
52.76, 2
52.77, 3
52.78, 3
52.79, 1
52.8, 1
52.81, 4
52.82, 5
52.83, 7
52.84, 4
52.85, 4
52.86, 6
52.87, 8
52.88, 5
52.89, 3
52.9, 4
52.91, 3
52.92, 5
52.93, 2
52.94, 4
52.95, 5
52.96, 2
52.97, 5
52.98, 8
52.99, 3
53, 8
53.01, 2
53.02, 4
53.03, 4
53.04, 7
53.05, 6
53.06, 9
53.07, 4
53.08, 3
53.09, 3
53.1, 7
53.11, 5
53.12, 3
53.13, 2
53.14, 5
53.15, 4
53.16, 2
53.17, 6
53.18, 6
53.19, 4
53.2, 2
53.21, 3
53.22, 3
53.23, 3
53.24, 2
53.25, 5
53.26, 3
53.27, 7
53.28, 7
53.29, 3
53.3, 3
53.31, 4
53.32, 1
53.33, 7
53.34, 3
53.35, 8
53.36, 2
53.37, 2
53.38, 4
53.39, 2
53.4, 4
53.41, 6
53.42, 5
53.43, 7
53.44, 3
53.45, 0
53.46, 4
53.47, 6
53.48, 5
53.49, 6
53.5, 3
53.51, 1
53.52, 9
53.53, 3
53.54, 1
53.55, 3
53.56, 4
53.57, 9
53.58, 4
53.59, 1
53.6, 8
53.61, 3
53.62, 2
53.63, 7
53.64, 4
53.65, 3
53.66, 3
53.67, 2
53.68, 4
53.69, 4
53.7, 3
53.71, 3
53.72, 12
53.73, 7
53.74, 3
53.75, 3
53.76, 4
53.77, 7
53.78, 8
53.79, 5
53.8, 4
53.81, 6
53.82, 6
53.83, 5
53.84, 9
53.85, 6
53.86, 7
53.87, 6
53.88, 4
53.89, 9
53.9, 5
53.91, 4
53.92, 5
53.93, 4
53.94, 6
53.95, 5
53.96, 6
53.97, 6
53.98, 1
53.99, 5
54, 10
54.01, 2
54.02, 8
54.03, 3
54.04, 3
54.05, 8
54.06, 7
54.07, 4
54.08, 1
54.09, 6
54.1, 5
54.11, 8
54.12, 5
54.13, 6
54.14, 4
54.15, 2
54.16, 3
54.17, 2
54.18, 4
54.19, 2
54.2, 4
54.21, 5
54.22, 6
54.23, 1
54.24, 9
54.25, 5
54.26, 5
54.27, 14
54.28, 8
54.29, 5
54.3, 11
54.31, 5
54.32, 2
54.33, 2
54.34, 9
54.35, 3
54.36, 5
54.37, 4
54.38, 7
54.39, 9
54.4, 2
54.41, 8
54.42, 4
54.43, 5
54.44, 5
54.45, 7
54.46, 5
54.47, 6
54.48, 3
54.49, 2
54.5, 3
54.51, 4
54.52, 5
54.53, 2
54.54, 0
54.55, 7
54.56, 3
54.57, 7
54.58, 6
54.59, 3
54.6, 5
54.61, 4
54.62, 3
54.63, 9
54.64, 8
54.65, 6
54.66, 5
54.67, 6
54.68, 5
54.69, 6
54.7, 5
54.71, 3
54.72, 5
54.73, 2
54.74, 4
54.75, 5
54.76, 8
54.77, 3
54.78, 6
54.79, 7
54.8, 7
54.81, 3
54.82, 3
54.83, 4
54.84, 4
54.85, 5
54.86, 9
54.87, 6
54.88, 2
54.89, 4
54.9, 2
54.91, 3
54.92, 5
54.93, 7
54.94, 1
54.95, 3
54.96, 9
54.97, 5
54.98, 9
54.99, 4
55, 2
55.01, 4
55.02, 7
55.03, 8
55.04, 8
55.05, 2
55.06, 5
55.07, 7
55.08, 5
55.09, 5
55.1, 8
55.11, 4
55.12, 6
55.13, 9
55.14, 3
55.15, 3
55.16, 3
55.17, 5
55.18, 7
55.19, 7
55.2, 2
55.21, 6
55.22, 6
55.23, 7
55.24, 7
55.25, 7
55.26, 4
55.27, 14
55.28, 8
55.29, 9
55.3, 6
55.31, 9
55.32, 6
55.33, 6
55.34, 7
55.35, 6
55.36, 5
55.37, 10
55.38, 9
55.39, 8
55.4, 7
55.41, 7
55.42, 5
55.43, 13
55.44, 15
55.45, 6
55.46, 6
55.47, 8
55.48, 16
55.49, 8
55.5, 14
55.51, 13
55.52, 13
55.53, 18
55.54, 15
55.55, 14
55.56, 22
55.57, 12
55.58, 15
55.59, 17
55.6, 15
55.61, 21
55.62, 20
55.63, 24
55.64, 19
55.65, 19
55.66, 22
55.67, 25
55.68, 32
55.69, 44
55.7, 33
55.71, 41
55.72, 48
55.73, 66
55.74, 67
55.75, 89
55.76, 95
55.77, 147
55.78, 206
55.79, 232
55.8, 282
55.81, 319
55.82, 294
55.83, 271
55.84, 174
55.85, 104
55.86, 105
55.87, 65
55.88, 65
55.89, 82
55.9, 72
55.91, 93
55.92, 108
55.93, 116
55.94, 123
55.95, 144
55.96, 148
55.97, 151
55.98, 99
55.99, 86
56, 69
56.01, 56
56.02, 43
56.03, 37
56.04, 27
56.05, 37
56.06, 29
56.07, 35
56.08, 26
56.09, 30
56.1, 17
56.11, 13
56.12, 8
56.13, 19
56.14, 13
56.15, 15
56.16, 15
56.17, 15
56.18, 16
56.19, 18
56.2, 16
56.21, 6
56.22, 9
56.23, 8
56.24, 10
56.25, 8
56.26, 8
56.27, 11
56.28, 10
56.29, 15
56.3, 6
56.31, 7
56.32, 6
56.33, 12
56.34, 8
56.35, 5
56.36, 7
56.37, 9
56.38, 7
56.39, 6
56.4, 8
56.41, 9
56.42, 2
56.43, 17
56.44, 6
56.45, 9
56.46, 5
56.47, 6
56.48, 4
56.49, 4
56.5, 5
56.51, 6
56.52, 5
56.53, 5
56.54, 7
56.55, 7
56.56, 6
56.57, 4
56.58, 2
56.59, 6
56.6, 3
56.61, 6
56.62, 4
56.63, 2
56.64, 1
56.65, 3
56.66, 6
56.67, 2
56.68, 5
56.69, 3
56.7, 3
56.71, 6
56.72, 4
56.73, 4
56.74, 3
56.75, 7
56.76, 3
56.77, 3
56.78, 7
56.79, 3
56.8, 1
56.81, 5
56.82, 3
56.83, 2
56.84, 5
56.85, 6
56.86, 6
56.87, 4
56.88, 6
56.89, 6
56.9, 7
56.91, 6
56.92, 8
56.93, 3
56.94, 6
56.95, 3
56.96, 2
56.97, 4
56.98, 7
56.99, 4
57, 9
57.01, 3
57.02, 4
57.03, 2
57.04, 5
57.05, 5
57.06, 1
57.07, 4
57.08, 3
57.09, 7
57.1, 2
57.11, 2
57.12, 4
57.13, 2
57.14, 5
57.15, 5
57.16, 7
57.17, 8
57.18, 3
57.19, 1
57.2, 6
57.21, 3
57.22, 4
57.23, 4
57.24, 6
57.25, 1
57.26, 3
57.27, 3
57.28, 2
57.29, 4
57.3, 4
57.31, 3
57.32, 8
57.33, 4
57.34, 3
57.35, 2
57.36, 1
57.37, 3
57.38, 5
57.39, 3
57.4, 1
57.41, 3
57.42, 4
57.43, 2
57.44, 3
57.45, 3
57.46, 3
57.47, 6
57.48, 2
57.49, 1
57.5, 3
57.51, 5
57.52, 5
57.53, 5
57.54, 8
57.55, 7
57.56, 4
57.57, 6
57.58, 4
57.59, 5
57.6, 6
57.61, 4
57.62, 3
57.63, 5
57.64, 4
57.65, 2
57.66, 4
57.67, 5
57.68, 1
57.69, 5
57.7, 0
57.71, 2
57.72, 4
57.73, 2
57.74, 3
57.75, 3
57.76, 1
57.77, 5
57.78, 6
57.79, 5
57.8, 5
57.81, 3
57.82, 1
57.83, 4
57.84, 1
57.85, 4
57.86, 3
57.87, 2
57.88, 2
57.89, 1
57.9, 2
57.91, 4
57.92, 3
57.93, 3
57.94, 3
57.95, 4
57.96, 4
57.97, 6
57.98, 5
57.99, 2
58, 4
58.01, 4
58.02, 7
58.03, 6
58.04, 1
58.05, 4
58.06, 5
58.07, 2
58.08, 3
58.09, 6
58.1, 4
58.11, 7
58.12, 3
58.13, 4
58.14, 3
58.15, 6
58.16, 3
58.17, 6
58.18, 3
58.19, 5
58.2, 2
58.21, 4
58.22, 3
58.23, 4
58.24, 0
58.25, 5
58.26, 5
58.27, 3
58.28, 8
58.29, 6
58.3, 3
58.31, 2
58.32, 5
58.33, 6
58.34, 6
58.35, 4
58.36, 5
58.37, 3
58.38, 5
58.39, 1
58.4, 3
58.41, 3
58.42, 3
58.43, 6
58.44, 4
58.45, 6
58.46, 6
58.47, 6
58.48, 8
58.49, 5
58.5, 6
58.51, 4
58.52, 4
58.53, 8
58.54, 5
58.55, 6
58.56, 6
58.57, 4
58.58, 4
58.59, 2
58.6, 5
58.61, 1
58.62, 5
58.63, 2
58.64, 10
58.65, 4
58.66, 5
58.67, 4
58.68, 6
58.69, 8
58.7, 3
58.71, 3
58.72, 4
58.73, 5
58.74, 6
58.75, 5
58.76, 2
58.77, 3
58.78, 8
58.79, 4
58.8, 6
58.81, 1
58.82, 2
58.83, 1
58.84, 2
58.85, 6
58.86, 4
58.87, 4
58.88, 1
58.89, 3
58.9, 2
58.91, 5
58.92, 4
58.93, 0
58.94, 5
58.95, 2
58.96, 3
58.97, 3
58.98, 7
58.99, 6
59, 2
59.01, 3
59.02, 4
59.03, 4
59.04, 3
59.05, 1
59.06, 10
59.07, 2
59.08, 3
59.09, 6
59.1, 3
59.11, 2
59.12, 3
59.13, 3
59.14, 2
59.15, 7
59.16, 3
59.17, 2
59.18, 4
59.19, 6
59.2, 2
59.21, 4
59.22, 3
59.23, 2
59.24, 4
59.25, 1
59.26, 2
59.27, 4
59.28, 2
59.29, 3
59.3, 4
59.31, 6
59.32, 2
59.33, 9
59.34, 2
59.35, 4
59.36, 5
59.37, 3
59.38, 4
59.39, 5
59.4, 2
59.41, 6
59.42, 5
59.43, 2
59.44, 5
59.45, 3
59.46, 5
59.47, 2
59.48, 4
59.49, 4
59.5, 2
59.51, 1
59.52, 6
59.53, 7
59.54, 5
59.55, 7
59.56, 1
59.57, 4
59.58, 3
59.59, 2
59.6, 8
59.61, 6
59.62, 4
59.63, 2
59.64, 3
59.65, 4
59.66, 3
59.67, 4
59.68, 5
59.69, 1
59.7, 6
59.71, 3
59.72, 4
59.73, 7
59.74, 2
59.75, 2
59.76, 4
59.77, 5
59.78, 3
59.79, 1
59.8, 1
59.81, 4
59.82, 5
59.83, 5
59.84, 2
59.85, 2
59.86, 5
59.87, 4
59.88, 4
59.89, 5
59.9, 3
59.91, 2
59.92, 6
59.93, 4
59.94, 5
59.95, 4
59.96, 2
59.97, 2
59.98, 4
59.99, 4
60, 3
60.01, 4
60.02, 2
60.03, 1
60.04, 5
60.05, 5
60.06, 5
60.07, 1
60.08, 5
60.09, 4
60.1, 3
60.11, 5
60.12, 4
60.13, 2
60.14, 0
60.15, 1
60.16, 6
60.17, 2
60.18, 5
60.19, 4
60.2, 4
60.21, 4
60.22, 5
60.23, 2
60.24, 4
60.25, 7
60.26, 5
60.27, 2
60.28, 3
60.29, 1
60.3, 2
60.31, 2
60.32, 2
60.33, 5
60.34, 3
60.35, 5
60.36, 1
60.37, 3
60.38, 2
60.39, 4
60.4, 3
60.41, 2
60.42, 7
60.43, 5
60.44, 3
60.45, 6
60.46, 5
60.47, 3
60.48, 5
60.49, 4
60.5, 1
60.51, 2
60.52, 6
60.53, 3
60.54, 4
60.55, 5
60.56, 4
60.57, 4
60.58, 3
60.59, 4
60.6, 4
60.61, 2
60.62, 1
60.63, 8
60.64, 4
60.65, 1
60.66, 8
60.67, 3
60.68, 4
60.69, 6
60.7, 2
60.71, 4
60.72, 9
60.73, 1
60.74, 4
60.75, 3
60.76, 2
60.77, 3
60.78, 8
60.79, 5
60.8, 4
60.81, 2
60.82, 4
60.83, 3
60.84, 3
60.85, 4
60.86, 1
60.87, 5
60.88, 4
60.89, 5
60.9, 1
60.91, 5
60.92, 2
60.93, 4
60.94, 3
60.95, 4
60.96, 4
60.97, 2
60.98, 4
60.99, 3
61, 3
61.01, 2
61.02, 2
61.03, 3
61.04, 6
61.05, 2
61.06, 3
61.07, 4
61.08, 4
61.09, 1
61.1, 3
61.11, 6
61.12, 1
61.13, 4
61.14, 3
61.15, 4
61.16, 4
61.17, 4
61.18, 4
61.19, 1
61.2, 6
61.21, 3
61.22, 6
61.23, 4
61.24, 0
61.25, 4
61.26, 2
61.27, 4
61.28, 4
61.29, 8
61.3, 4
61.31, 6
61.32, 4
61.33, 4
61.34, 3
61.35, 4
61.36, 5
61.37, 0
61.38, 2
61.39, 5
61.4, 5
61.41, 6
61.42, 1
61.43, 5
61.44, 5
61.45, 2
61.46, 1
61.47, 2
61.48, 2
61.49, 2
61.5, 1
61.51, 3
61.52, 6
61.53, 7
61.54, 5
61.55, 1
61.56, 5
61.57, 1
61.58, 0
61.59, 8
61.6, 7
61.61, 3
61.62, 4
61.63, 7
61.64, 3
61.65, 6
61.66, 2
61.67, 3
61.68, 8
61.69, 1
61.7, 1
61.71, 3
61.72, 2
61.73, 4
61.74, 2
61.75, 1
61.76, 4
61.77, 2
61.78, 2
61.79, 2
61.8, 3
61.81, 2
61.82, 2
61.83, 2
61.84, 5
61.85, 3
61.86, 3
61.87, 5
61.88, 4
61.89, 3
61.9, 5
61.91, 4
61.92, 6
61.93, 2
61.94, 5
61.95, 4
61.96, 4
61.97, 2
61.98, 3
61.99, 2
62, 0
62.01, 4
62.02, 2
62.03, 7
62.04, 4
62.05, 3
62.06, 4
62.07, 3
62.08, 4
62.09, 6
62.1, 3
62.11, 1
62.12, 5
62.13, 2
62.14, 1
62.15, 4
62.16, 5
62.17, 1
62.18, 5
62.19, 4
62.2, 2
62.21, 1
62.22, 6
62.23, 4
62.24, 1
62.25, 1
62.26, 1
62.27, 1
62.28, 3
62.29, 3
62.3, 4
62.31, 3
62.32, 4
62.33, 2
62.34, 6
62.35, 3
62.36, 3
62.37, 7
62.38, 2
62.39, 5
62.4, 1
62.41, 2
62.42, 3
62.43, 4
62.44, 3
62.45, 4
62.46, 3
62.47, 4
62.48, 2
62.49, 4
62.5, 3
62.51, 2
62.52, 3
62.53, 1
62.54, 3
62.55, 2
62.56, 2
62.57, 3
62.58, 3
62.59, 7
62.6, 1
62.61, 1
62.62, 3
62.63, 6
62.64, 2
62.65, 1
62.66, 1
62.67, 2
62.68, 1
62.69, 0
62.7, 2
62.71, 2
62.72, 0
62.73, 1
62.74, 2
62.75, 2
62.76, 5
62.77, 4
62.78, 4
62.79, 3
62.8, 3
62.81, 2
62.82, 4
62.83, 3
62.84, 2
62.85, 3
62.86, 4
62.87, 7
62.88, 6
62.89, 3
62.9, 8
62.91, 4
62.92, 4
62.93, 2
62.94, 2
62.95, 7
62.96, 0
62.97, 7
62.98, 2
62.99, 2
63, 1
63.01, 3
63.02, 2
63.03, 5
63.04, 4
63.05, 2
63.06, 6
63.07, 4
63.08, 3
63.09, 2
63.1, 2
63.11, 2
63.12, 4
63.13, 6
63.14, 5
63.15, 5
63.16, 3
63.17, 3
63.18, 7
63.19, 3
63.2, 2
63.21, 0
63.22, 2
63.23, 3
63.24, 2
63.25, 2
63.26, 3
63.27, 6
63.28, 4
63.29, 1
63.3, 0
63.31, 5
63.32, 1
63.33, 1
63.34, 6
63.35, 4
63.36, 1
63.37, 5
63.38, 5
63.39, 4
63.4, 2
63.41, 0
63.42, 2
63.43, 0
63.44, 2
63.45, 2
63.46, 5
63.47, 5
63.48, 2
63.49, 2
63.5, 1
63.51, 2
63.52, 4
63.53, 3
63.54, 5
63.55, 3
63.56, 5
63.57, 4
63.58, 2
63.59, 5
63.6, 2
63.61, 2
63.62, 2
63.63, 2
63.64, 1
63.65, 4
63.66, 2
63.67, 3
63.68, 2
63.69, 5
63.7, 2
63.71, 2
63.72, 2
63.73, 5
63.74, 3
63.75, 2
63.76, 2
63.77, 3
63.78, 4
63.79, 5
63.8, 3
63.81, 3
63.82, 2
63.83, 6
63.84, 2
63.85, 1
63.86, 3
63.87, 4
63.88, 4
63.89, 2
63.9, 1
63.91, 1
63.92, 2
63.93, 4
63.94, 7
63.95, 2
63.96, 2
63.97, 2
63.98, 3
63.99, 1
64, 3
64.01, 1
64.02, 1
64.03, 4
64.04, 2
64.05, 2
64.06, 4
64.07, 4
64.08, 5
64.09, 3
64.1, 1
64.11, 4
64.12, 2
64.13, 0
64.14, 5
64.15, 2
64.16, 5
64.17, 3
64.18, 4
64.19, 2
64.2, 2
64.21, 5
64.22, 1
64.23, 4
64.24, 4
64.25, 4
64.26, 2
64.27, 3
64.28, 2
64.29, 3
64.3, 4
64.31, 2
64.32, 2
64.33, 3
64.34, 6
64.35, 2
64.36, 3
64.37, 3
64.38, 2
64.39, 3
64.4, 6
64.41, 2
64.42, 2
64.43, 2
64.44, 2
64.45, 1
64.46, 1
64.47, 3
64.48, 4
64.49, 7
64.5, 4
64.51, 1
64.52, 3
64.53, 1
64.54, 1
64.55, 2
64.56, 1
64.57, 4
64.58, 4
64.59, 3
64.6, 2
64.61, 2
64.62, 4
64.63, 5
64.64, 1
64.65, 2
64.66, 5
64.67, 4
64.68, 5
64.69, 4
64.7, 4
64.71, 2
64.72, 5
64.73, 2
64.74, 1
64.75, 3
64.76, 1
64.77, 5
64.78, 0
64.79, 1
64.8, 1
64.81, 1
64.82, 1
64.83, 4
64.84, 1
64.85, 3
64.86, 4
64.87, 2
64.88, 5
64.89, 1
64.9, 3
64.91, 2
64.92, 2
64.93, 4
64.94, 1
64.95, 2
64.96, 4
64.97, 5
64.98, 5
64.99, 1
65, 2
65.01, 5
65.02, 2
65.03, 6
65.04, 3
65.05, 1
65.06, 4
65.07, 2
65.08, 3
65.09, 5
65.1, 4
65.11, 4
65.12, 5
65.13, 3
65.14, 1
65.15, 1
65.16, 3
65.17, 4
65.18, 3
65.19, 4
65.2, 4
65.21, 1
65.22, 0
65.23, 9
65.24, 2
65.25, 3
65.26, 1
65.27, 3
65.28, 4
65.29, 1
65.3, 6
65.31, 2
65.32, 3
65.33, 4
65.34, 2
65.35, 2
65.36, 0
65.37, 4
65.38, 3
65.39, 0
65.4, 2
65.41, 0
65.42, 4
65.43, 6
65.44, 4
65.45, 3
65.46, 3
65.47, 2
65.48, 2
65.49, 1
65.5, 7
65.51, 0
65.52, 1
65.53, 5
65.54, 5
65.55, 3
65.56, 4
65.57, 3
65.58, 2
65.59, 1
65.6, 4
65.61, 3
65.62, 3
65.63, 1
65.64, 1
65.65, 4
65.66, 2
65.67, 3
65.68, 3
65.69, 4
65.7, 3
65.71, 4
65.72, 2
65.73, 8
65.74, 3
65.75, 4
65.76, 2
65.77, 3
65.78, 5
65.79, 2
65.8, 3
65.81, 5
65.82, 3
65.83, 3
65.84, 3
65.85, 4
65.86, 0
65.87, 5
65.88, 2
65.89, 3
65.9, 0
65.91, 0
65.92, 1
65.93, 4
65.94, 4
65.95, 3
65.96, 2
65.97, 3
65.98, 3
65.99, 5
66, 2
66.01, 6
66.02, 1
66.03, 5
66.04, 1
66.05, 4
66.06, 1
66.07, 0
66.08, 6
66.09, 4
66.1, 2
66.11, 7
66.12, 3
66.13, 3
66.14, 4
66.15, 4
66.16, 2
66.17, 4
66.18, 5
66.19, 0
66.2, 7
66.21, 2
66.22, 3
66.23, 1
66.24, 3
66.25, 2
66.26, 1
66.27, 3
66.28, 2
66.29, 3
66.3, 3
66.31, 6
66.32, 2
66.33, 2
66.34, 4
66.35, 2
66.36, 1
66.37, 2
66.38, 2
66.39, 2
66.4, 2
66.41, 5
66.42, 3
66.43, 2
66.44, 4
66.45, 5
66.46, 2
66.47, 1
66.48, 2
66.49, 4
66.5, 0
66.51, 2
66.52, 4
66.53, 4
66.54, 2
66.55, 2
66.56, 6
66.57, 7
66.58, 2
66.59, 4
66.6, 6
66.61, 6
66.62, 4
66.63, 5
66.64, 1
66.65, 4
66.66, 3
66.67, 1
66.68, 3
66.69, 2
66.7, 4
66.71, 1
66.72, 5
66.73, 3
66.74, 2
66.75, 6
66.76, 3
66.77, 6
66.78, 5
66.79, 3
66.8, 2
66.81, 3
66.82, 2
66.83, 2
66.84, 2
66.85, 8
66.86, 1
66.87, 4
66.88, 5
66.89, 4
66.9, 5
66.91, 3
66.92, 3
66.93, 6
66.94, 2
66.95, 2
66.96, 0
66.97, 0
66.98, 1
66.99, 0
67, 2
67.01, 1
67.02, 2
67.03, 5
67.04, 4
67.05, 2
67.06, 3
67.07, 3
67.08, 2
67.09, 3
67.1, 5
67.11, 1
67.12, 4
67.13, 3
67.14, 6
67.15, 4
67.16, 7
67.17, 6
67.18, 3
67.19, 3
67.2, 2
67.21, 4
67.22, 2
67.23, 4
67.24, 2
67.25, 7
67.26, 3
67.27, 3
67.28, 3
67.29, 5
67.3, 1
67.31, 5
67.32, 3
67.33, 4
67.34, 3
67.35, 3
67.36, 2
67.37, 3
67.38, 2
67.39, 2
67.4, 4
67.41, 3
67.42, 4
67.43, 4
67.44, 7
67.45, 4
67.46, 3
67.47, 7
67.48, 6
67.49, 8
67.5, 6
67.51, 2
67.52, 3
67.53, 8
67.54, 6
67.55, 2
67.56, 7
67.57, 1
67.58, 3
67.59, 5
67.6, 5
67.61, 5
67.62, 3
67.63, 2
67.64, 3
67.65, 3
67.66, 4
67.67, 3
67.68, 2
67.69, 2
67.7, 2
67.71, 2
67.72, 2
67.73, 2
67.74, 7
67.75, 0
67.76, 4
67.77, 5
67.78, 4
67.79, 2
67.8, 4
67.81, 3
67.82, 4
67.83, 1
67.84, 3
67.85, 9
67.86, 4
67.87, 2
67.88, 6
67.89, 2
67.9, 4
67.91, 4
67.92, 4
67.93, 6
67.94, 2
67.95, 2
67.96, 3
67.97, 3
67.98, 2
67.99, 4
68, 4
68.01, 5
68.02, 5
68.03, 2
68.04, 2
68.05, 7
68.06, 3
68.07, 3
68.08, 4
68.09, 5
68.1, 5
68.11, 5
68.12, 1
68.13, 2
68.14, 2
68.15, 4
68.16, 5
68.17, 3
68.18, 2
68.19, 5
68.2, 6
68.21, 5
68.22, 6
68.23, 5
68.24, 9
68.25, 3
68.26, 4
68.27, 2
68.28, 5
68.29, 2
68.3, 0
68.31, 5
68.32, 4
68.33, 3
68.34, 5
68.35, 2
68.36, 5
68.37, 11
68.38, 6
68.39, 6
68.4, 5
68.41, 3
68.42, 9
68.43, 8
68.44, 6
68.45, 7
68.46, 6
68.47, 4
68.48, 5
68.49, 12
68.5, 9
68.51, 9
68.52, 11
68.53, 8
68.54, 11
68.55, 5
68.56, 7
68.57, 9
68.58, 18
68.59, 21
68.6, 14
68.61, 17
68.62, 20
68.63, 17
68.64, 21
68.65, 33
68.66, 28
68.67, 43
68.68, 41
68.69, 52
68.7, 69
68.71, 68
68.72, 66
68.73, 37
68.74, 40
68.75, 33
68.76, 35
68.77, 23
68.78, 18
68.79, 23
68.8, 20
68.81, 19
68.82, 20
68.83, 15
68.84, 16
68.85, 15
68.86, 20
68.87, 27
68.88, 23
68.89, 40
68.9, 25
68.91, 36
68.92, 25
68.93, 33
68.94, 18
68.95, 7
68.96, 14
68.97, 13
68.98, 4
68.99, 13
69, 11
69.01, 10
69.02, 7
69.03, 4
69.04, 6
69.05, 10
69.06, 4
69.07, 11
69.08, 11
69.09, 6
69.1, 4
69.11, 9
69.12, 6
69.13, 5
69.14, 9
69.15, 5
69.16, 11
69.17, 5
69.18, 4
69.19, 3
69.2, 4
69.21, 5
69.22, 6
69.23, 3
69.24, 4
69.25, 5
69.26, 5
69.27, 4
69.28, 3
69.29, 4
69.3, 1
69.31, 3
69.32, 2
69.33, 6
69.34, 6
69.35, 1
69.36, 3
69.37, 2
69.38, 5
69.39, 5
69.4, 3
69.41, 4
69.42, 4
69.43, 3
69.44, 3
69.45, 4
69.46, 7
69.47, 0
69.48, 2
69.49, 2
69.5, 6
69.51, 2
69.52, 3
69.53, 1
69.54, 2
69.55, 4
69.56, 6
69.57, 4
69.58, 3
69.59, 2
69.6, 1
69.61, 2
69.62, 2
69.63, 0
69.64, 6
69.65, 2
69.66, 2
69.67, 4
69.68, 7
69.69, 4
69.7, 1
69.71, 1
69.72, 3
69.73, 0
69.74, 3
69.75, 4
69.76, 3
69.77, 2
69.78, 1
69.79, 6
69.8, 2
69.81, 3
69.82, 0
69.83, 1
69.84, 4
69.85, 3
69.86, 3
69.87, 7
69.88, 7
69.89, 1
69.9, 0
69.91, 3
69.92, 1
69.93, 1
69.94, 3
69.95, 0
69.96, 3
69.97, 4
69.98, 0
69.99, 4
70, 1
70.01, 2
70.02, 1
70.03, 2
70.04, 1
70.05, 2
70.06, 10
70.07, 1
70.08, 6
70.09, 6
70.1, 4
70.11, 3
70.12, 6
70.13, 5
70.14, 3
70.15, 1
70.16, 1
70.17, 5
70.18, 2
70.19, 3
70.2, 5
70.21, 5
70.22, 2
70.23, 1
70.24, 2
70.25, 2
70.26, 1
70.27, 5
70.28, 3
70.29, 2
70.3, 1
70.31, 1
70.32, 2
70.33, 3
70.34, 0
70.35, 4
70.36, 1
70.37, 5
70.38, 11
70.39, 2
70.4, 3
70.41, 6
70.42, 3
70.43, 1
70.44, 1
70.45, 1
70.46, 3
70.47, 4
70.48, 4
70.49, 1
70.5, 1
70.51, 3
70.52, 1
70.53, 4
70.54, 3
70.55, 1
70.56, 2
70.57, 3
70.58, 1
70.59, 4
70.6, 3
70.61, 1
70.62, 3
70.63, 2
70.64, 3
70.65, 1
70.66, 2
70.67, 4
70.68, 1
70.69, 3
70.7, 2
70.71, 4
70.72, 3
70.73, 1
70.74, 0
70.75, 4
70.76, 0
70.77, 2
70.78, 6
70.79, 6
70.8, 1
70.81, 0
70.82, 5
70.83, 1
70.84, 3
70.85, 2
70.86, 0
70.87, 1
70.88, 1
70.89, 2
70.9, 2
70.91, 3
70.92, 5
70.93, 5
70.94, 3
70.95, 3
70.96, 3
70.97, 1
70.98, 4
70.99, 5
71, 1
71.01, 3
71.02, 7
71.03, 3
71.04, 4
71.05, 3
71.06, 1
71.07, 3
71.08, 4
71.09, 1
71.1, 3
71.11, 2
71.12, 3
71.13, 3
71.14, 5
71.15, 3
71.16, 4
71.17, 3
71.18, 7
71.19, 0
71.2, 6
71.21, 4
71.22, 3
71.23, 6
71.24, 2
71.25, 3
71.26, 1
71.27, 2
71.28, 2
71.29, 2
71.3, 1
71.31, 5
71.32, 3
71.33, 2
71.34, 5
71.35, 2
71.36, 5
71.37, 2
71.38, 4
71.39, 5
71.4, 1
71.41, 5
71.42, 3
71.43, 1
71.44, 1
71.45, 3
71.46, 5
71.47, 4
71.48, 4
71.49, 4
71.5, 1
71.51, 2
71.52, 2
71.53, 3
71.54, 2
71.55, 3
71.56, 5
71.57, 0
71.58, 6
71.59, 4
71.6, 1
71.61, 4
71.62, 4
71.63, 1
71.64, 0
71.65, 1
71.66, 3
71.67, 3
71.68, 1
71.69, 3
71.7, 1
71.71, 5
71.72, 3
71.73, 3
71.74, 4
71.75, 3
71.76, 2
71.77, 0
71.78, 2
71.79, 1
71.8, 2
71.81, 0
71.82, 4
71.83, 3
71.84, 2
71.85, 3
71.86, 4
71.87, 2
71.88, 3
71.89, 1
71.9, 2
71.91, 2
71.92, 2
71.93, 2
71.94, 1
71.95, 3
71.96, 0
71.97, 5
71.98, 2
71.99, 2
72, 0
72.01, 1
72.02, 4
72.03, 4
72.04, 2
72.05, 2
72.06, 4
72.07, 5
72.08, 2
72.09, 4
72.1, 1
72.11, 3
72.12, 2
72.13, 4
72.14, 3
72.15, 3
72.16, 2
72.17, 1
72.18, 4
72.19, 3
72.2, 5
72.21, 1
72.22, 4
72.23, 4
72.24, 6
72.25, 0
72.26, 3
72.27, 5
72.28, 0
72.29, 3
72.3, 1
72.31, 1
72.32, 3
72.33, 5
72.34, 3
72.35, 2
72.36, 3
72.37, 4
72.38, 4
72.39, 8
72.4, 3
72.41, 2
72.42, 6
72.43, 2
72.44, 4
72.45, 5
72.46, 1
72.47, 0
72.48, 1
72.49, 5
72.5, 2
72.51, 3
72.52, 3
72.53, 4
72.54, 4
72.55, 3
72.56, 1
72.57, 6
72.58, 3
72.59, 4
72.6, 6
72.61, 3
72.62, 1
72.63, 2
72.64, 2
72.65, 4
72.66, 6
72.67, 3
72.68, 3
72.69, 3
72.7, 3
72.71, 4
72.72, 0
72.73, 3
72.74, 1
72.75, 2
72.76, 1
72.77, 5
72.78, 8
72.79, 0
72.8, 2
72.81, 3
72.82, 2
72.83, 2
72.84, 4
72.85, 3
72.86, 1
72.87, 5
72.88, 4
72.89, 7
72.9, 4
72.91, 1
72.92, 2
72.93, 3
72.94, 0
72.95, 0
72.96, 2
72.97, 3
72.98, 2
72.99, 8
73, 2
73.01, 1
73.02, 3
73.03, 4
73.04, 3
73.05, 3
73.06, 2
73.07, 3
73.08, 0
73.09, 3
73.1, 3
73.11, 2
73.12, 4
73.13, 4
73.14, 4
73.15, 1
73.16, 1
73.17, 5
73.18, 6
73.19, 3
73.2, 0
73.21, 4
73.22, 3
73.23, 2
73.24, 2
73.25, 5
73.26, 3
73.27, 5
73.28, 3
73.29, 2
73.3, 2
73.31, 3
73.32, 2
73.33, 2
73.34, 2
73.35, 2
73.36, 2
73.37, 3
73.38, 6
73.39, 2
73.4, 3
73.41, 4
73.42, 0
73.43, 5
73.44, 3
73.45, 3
73.46, 3
73.47, 7
73.48, 4
73.49, 2
73.5, 6
73.51, 6
73.52, 5
73.53, 4
73.54, 1
73.55, 1
73.56, 0
73.57, 2
73.58, 2
73.59, 2
73.6, 2
73.61, 5
73.62, 6
73.63, 1
73.64, 3
73.65, 7
73.66, 7
73.67, 1
73.68, 2
73.69, 2
73.7, 7
73.71, 4
73.72, 0
73.73, 2
73.74, 4
73.75, 2
73.76, 3
73.77, 3
73.78, 3
73.79, 2
73.8, 6
73.81, 4
73.82, 2
73.83, 1
73.84, 5
73.85, 5
73.86, 5
73.87, 3
73.88, 2
73.89, 4
73.9, 3
73.91, 4
73.92, 3
73.93, 7
73.94, 1
73.95, 5
73.96, 4
73.97, 6
73.98, 1
73.99, 1
74, 5
74.01, 5
74.02, 2
74.03, 4
74.04, 2
74.05, 2
74.06, 1
74.07, 6
74.08, 1
74.09, 1
74.1, 1
74.11, 1
74.12, 7
74.13, 3
74.14, 3
74.15, 3
74.16, 3
74.17, 4
74.18, 3
74.19, 1
74.2, 2
74.21, 4
74.22, 1
74.23, 4
74.24, 1
74.25, 3
74.26, 4
74.27, 3
74.28, 1
74.29, 3
74.3, 3
74.31, 4
74.32, 5
74.33, 2
74.34, 5
74.35, 1
74.36, 3
74.37, 3
74.38, 3
74.39, 0
74.4, 5
74.41, 3
74.42, 3
74.43, 3
74.44, 1
74.45, 3
74.46, 2
74.47, 2
74.48, 5
74.49, 5
74.5, 1
74.51, 6
74.52, 3
74.53, 3
74.54, 2
74.55, 6
74.56, 4
74.57, 3
74.58, 6
74.59, 5
74.6, 1
74.61, 3
74.62, 5
74.63, 3
74.64, 3
74.65, 3
74.66, 5
74.67, 7
74.68, 4
74.69, 2
74.7, 5
74.71, 5
74.72, 5
74.73, 2
74.74, 2
74.75, 2
74.76, 1
74.77, 2
74.78, 2
74.79, 4
74.8, 3
74.81, 4
74.82, 7
74.83, 4
74.84, 5
74.85, 4
74.86, 4
74.87, 3
74.88, 4
74.89, 3
74.9, 5
74.91, 5
74.92, 4
74.93, 4
74.94, 4
74.95, 5
74.96, 2
74.97, 3
74.98, 4
74.99, 2
75, 3
75.01, 4
75.02, 4
75.03, 1
75.04, 3
75.05, 5
75.06, 3
75.07, 4
75.08, 2
75.09, 2
75.1, 9
75.11, 3
75.12, 8
75.13, 3
75.14, 7
75.15, 2
75.16, 8
75.17, 3
75.18, 3
75.19, 1
75.2, 7
75.21, 8
75.22, 3
75.23, 4
75.24, 5
75.25, 4
75.26, 8
75.27, 3
75.28, 6
75.29, 3
75.3, 3
75.31, 1
75.32, 4
75.33, 2
75.34, 3
75.35, 3
75.36, 8
75.37, 1
75.38, 5
75.39, 5
75.4, 4
75.41, 1
75.42, 5
75.43, 5
75.44, 5
75.45, 6
75.46, 6
75.47, 7
75.48, 2
75.49, 6
75.5, 6
75.51, 5
75.52, 10
75.53, 9
75.54, 9
75.55, 4
75.56, 9
75.57, 6
75.58, 4
75.59, 6
75.6, 10
75.61, 8
75.62, 9
75.63, 11
75.64, 11
75.65, 14
75.66, 5
75.67, 8
75.68, 13
75.69, 15
75.7, 12
75.71, 14
75.72, 10
75.73, 18
75.74, 10
75.75, 10
75.76, 11
75.77, 12
75.78, 22
75.79, 32
75.8, 28
75.81, 41
75.82, 42
75.83, 59
75.84, 80
75.85, 98
75.86, 171
75.87, 179
75.88, 231
75.89, 222
75.9, 162
75.91, 120
75.92, 74
75.93, 55
75.94, 54
75.95, 31
75.96, 39
75.97, 26
75.98, 27
75.99, 24
76, 24
76.01, 28
76.02, 21
76.03, 26
76.04, 39
76.05, 33
76.06, 45
76.07, 59
76.08, 65
76.09, 85
76.1, 116
76.11, 120
76.12, 85
76.13, 71
76.14, 60
76.15, 48
76.16, 33
76.17, 17
76.18, 21
76.19, 22
76.2, 13
76.21, 14
76.22, 12
76.23, 15
76.24, 9
76.25, 12
76.26, 8
76.27, 10
76.28, 7
76.29, 8
76.3, 7
76.31, 5
76.32, 7
76.33, 9
76.34, 11
76.35, 8
76.36, 9
76.37, 2
76.38, 8
76.39, 10
76.4, 4
76.41, 10
76.42, 9
76.43, 4
76.44, 5
76.45, 6
76.46, 4
76.47, 2
76.48, 6
76.49, 5
76.5, 7
76.51, 6
76.52, 2
76.53, 9
76.54, 8
76.55, 4
76.56, 2
76.57, 3
76.58, 7
76.59, 3
76.6, 5
76.61, 2
76.62, 5
76.63, 8
76.64, 4
76.65, 4
76.66, 2
76.67, 6
76.68, 2
76.69, 2
76.7, 2
76.71, 3
76.72, 3
76.73, 7
76.74, 3
76.75, 2
76.76, 7
76.77, 4
76.78, 6
76.79, 4
76.8, 6
76.81, 4
76.82, 5
76.83, 3
76.84, 7
76.85, 3
76.86, 5
76.87, 4
76.88, 5
76.89, 1
76.9, 8
76.91, 6
76.92, 7
76.93, 6
76.94, 2
76.95, 3
76.96, 5
76.97, 7
76.98, 8
76.99, 2
77, 7
77.01, 4
77.02, 6
77.03, 3
77.04, 5
77.05, 1
77.06, 1
77.07, 4
77.08, 4
77.09, 3
77.1, 7
77.11, 2
77.12, 5
77.13, 2
77.14, 3
77.15, 5
77.16, 0
77.17, 3
77.18, 5
77.19, 5
77.2, 5
77.21, 3
77.22, 4
77.23, 7
77.24, 7
77.25, 3
77.26, 8
77.27, 9
77.28, 16
77.29, 10
77.3, 9
77.31, 7
77.32, 12
77.33, 10
77.34, 5
77.35, 2
77.36, 5
77.37, 2
77.38, 3
77.39, 4
77.4, 3
77.41, 4
77.42, 4
77.43, 4
77.44, 3
77.45, 6
77.46, 7
77.47, 7
77.48, 6
77.49, 3
77.5, 2
77.51, 5
77.52, 3
77.53, 5
77.54, 3
77.55, 7
77.56, 2
77.57, 5
77.58, 2
77.59, 4
77.6, 3
77.61, 2
77.62, 2
77.63, 2
77.64, 2
77.65, 5
77.66, 7
77.67, 4
77.68, 8
77.69, 3
77.7, 5
77.71, 3
77.72, 2
77.73, 7
77.74, 5
77.75, 2
77.76, 5
77.77, 3
77.78, 4
77.79, 2
77.8, 4
77.81, 1
77.82, 8
77.83, 1
77.84, 2
77.85, 4
77.86, 4
77.87, 2
77.88, 4
77.89, 3
77.9, 1
77.91, 2
77.92, 1
77.93, 1
77.94, 3
77.95, 2
77.96, 2
77.97, 3
77.98, 4
77.99, 5
78, 3
78.01, 1
78.02, 4
78.03, 1
78.04, 4
78.05, 4
78.06, 1
78.07, 5
78.08, 2
78.09, 1
78.1, 4
78.11, 3
78.12, 4
78.13, 2
78.14, 3
78.15, 3
78.16, 6
78.17, 9
78.18, 5
78.19, 8
78.2, 5
78.21, 5
78.22, 9
78.23, 8
78.24, 7
78.25, 4
78.26, 4
78.27, 8
78.28, 7
78.29, 4
78.3, 7
78.31, 2
78.32, 4
78.33, 3
78.34, 1
78.35, 6
78.36, 4
78.37, 5
78.38, 1
78.39, 3
78.4, 7
78.41, 4
78.42, 3
78.43, 5
78.44, 5
78.45, 8
78.46, 8
78.47, 2
78.48, 4
78.49, 3
78.5, 4
78.51, 5
78.52, 8
78.53, 4
78.54, 4
78.55, 2
78.56, 5
78.57, 1
78.58, 2
78.59, 3
78.6, 3
78.61, 3
78.62, 4
78.63, 4
78.64, 4
78.65, 3
78.66, 2
78.67, 2
78.68, 3
78.69, 4
78.7, 2
78.71, 7
78.72, 0
78.73, 1
78.74, 2
78.75, 4
78.76, 3
78.77, 4
78.78, 7
78.79, 0
78.8, 2
78.81, 2
78.82, 2
78.83, 3
78.84, 3
78.85, 3
78.86, 3
78.87, 3
78.88, 3
78.89, 1
78.9, 4
78.91, 2
78.92, 4
78.93, 4
78.94, 5
78.95, 7
78.96, 3
78.97, 0
78.98, 4
78.99, 7
79, 3
79.01, 4
79.02, 4
79.03, 5
79.04, 2
79.05, 1
79.06, 1
79.07, 1
79.08, 0
79.09, 3
79.1, 4
79.11, 2
79.12, 2
79.13, 4
79.14, 4
79.15, 2
79.16, 2
79.17, 1
79.18, 3
79.19, 2
79.2, 5
79.21, 3
79.22, 3
79.23, 1
79.24, 1
79.25, 3
79.26, 1
79.27, 1
79.28, 2
79.29, 1
79.3, 7
79.31, 4
79.32, 2
79.33, 5
79.34, 5
79.35, 2
79.36, 5
79.37, 2
79.38, 2
79.39, 1
79.4, 5
79.41, 4
79.42, 4
79.43, 1
79.44, 2
79.45, 2
79.46, 6
79.47, 7
79.48, 3
79.49, 3
79.5, 1
79.51, 4
79.52, 2
79.53, 0
79.54, 3
79.55, 3
79.56, 3
79.57, 2
79.58, 5
79.59, 3
79.6, 4
79.61, 3
79.62, 3
79.63, 2
79.64, 4
79.65, 6
79.66, 1
79.67, 3
79.68, 1
79.69, 3
79.7, 3
79.71, 4
79.72, 1
79.73, 6
79.74, 3
79.75, 4
79.76, 6
79.77, 2
79.78, 2
79.79, 4
79.8, 3
79.81, 3
79.82, 2
79.83, 0
79.84, 4
79.85, 6
79.86, 3
79.87, 6
79.88, 4
79.89, 4
79.9, 2
79.91, 4
79.92, 1
79.93, 3
79.94, 4
79.95, 2
79.96, 5
79.97, 4
79.98, 0
79.99, 2
80, 0
80.01, 6
80.02, 4
80.03, 2
80.04, 3
80.05, 2
80.06, 4
80.07, 0
80.08, 2
80.09, 3
80.1, 3
80.11, 3
80.12, 4
80.13, 4
80.14, 2
80.15, 2
80.16, 4
80.17, 2
80.18, 2
80.19, 1
80.2, 3
80.21, 3
80.22, 7
80.23, 1
80.24, 3
80.25, 2
80.26, 1
80.27, 1
80.28, 4
80.29, 3
80.3, 2
80.31, 4
80.32, 2
80.33, 2
80.34, 4
80.35, 3
80.36, 5
80.37, 3
80.38, 2
80.39, 2
80.4, 4
80.41, 2
80.42, 3
80.43, 1
80.44, 3
80.45, 5
80.46, 0
80.47, 4
80.48, 4
80.49, 3
80.5, 7
80.51, 5
80.52, 1
80.53, 3
80.54, 2
80.55, 1
80.56, 3
80.57, 6
80.58, 4
80.59, 4
80.6, 0
80.61, 6
80.62, 1
80.63, 2
80.64, 3
80.65, 2
80.66, 2
80.67, 3
80.68, 0
80.69, 3
80.7, 3
80.71, 3
80.72, 3
80.73, 2
80.74, 4
80.75, 1
80.76, 2
80.77, 1
80.78, 6
80.79, 3
80.8, 1
80.81, 3
80.82, 1
80.83, 6
80.84, 4
80.85, 3
80.86, 2
80.87, 2
80.88, 9
80.89, 7
80.9, 6
80.91, 1
80.92, 1
80.93, 3
80.94, 3
80.95, 4
80.96, 3
80.97, 2
80.98, 3
80.99, 3
81, 2
81.01, 2
81.02, 5
81.03, 4
81.04, 3
81.05, 0
81.06, 3
81.07, 0
81.08, 2
81.09, 2
81.1, 1
81.11, 4
81.12, 0
81.13, 4
81.14, 3
81.15, 0
81.16, 4
81.17, 0
81.18, 5
81.19, 2
81.2, 5
81.21, 3
81.22, 3
81.23, 4
81.24, 2
81.25, 5
81.26, 7
81.27, 4
81.28, 3
81.29, 2
81.3, 3
81.31, 4
81.32, 1
81.33, 1
81.34, 3
81.35, 3
81.36, 1
81.37, 2
81.38, 6
81.39, 7
81.4, 6
81.41, 6
81.42, 0
81.43, 2
81.44, 1
81.45, 3
81.46, 5
81.47, 5
81.48, 5
81.49, 0
81.5, 1
81.51, 1
81.52, 5
81.53, 2
81.54, 5
81.55, 2
81.56, 3
81.57, 1
81.58, 0
81.59, 5
81.6, 2
81.61, 4
81.62, 2
81.63, 0
81.64, 1
81.65, 3
81.66, 4
81.67, 1
81.68, 2
81.69, 3
81.7, 5
81.71, 8
81.72, 4
81.73, 2
81.74, 6
81.75, 0
81.76, 3
81.77, 7
81.78, 7
81.79, 5
81.8, 3
81.81, 3
81.82, 4
81.83, 2
81.84, 2
81.85, 2
81.86, 3
81.87, 1
81.88, 3
81.89, 2
81.9, 3
81.91, 5
81.92, 5
81.93, 1
81.94, 5
81.95, 3
81.96, 5
81.97, 3
81.98, 2
81.99, 1
82, 1
82.01, 2
82.02, 3
82.03, 3
82.04, 3
82.05, 4
82.06, 0
82.07, 6
82.08, 3
82.09, 4
82.1, 6
82.11, 4
82.12, 3
82.13, 3
82.14, 4
82.15, 4
82.16, 1
82.17, 3
82.18, 5
82.19, 4
82.2, 1
82.21, 2
82.22, 2
82.23, 1
82.24, 3
82.25, 5
82.26, 3
82.27, 2
82.28, 4
82.29, 8
82.3, 4
82.31, 1
82.32, 5
82.33, 2
82.34, 3
82.35, 8
82.36, 3
82.37, 4
82.38, 4
82.39, 6
82.4, 2
82.41, 4
82.42, 4
82.43, 3
82.44, 3
82.45, 5
82.46, 3
82.47, 5
82.48, 4
82.49, 2
82.5, 2
82.51, 4
82.52, 4
82.53, 3
82.54, 4
82.55, 2
82.56, 3
82.57, 3
82.58, 5
82.59, 4
82.6, 1
82.61, 3
82.62, 1
82.63, 4
82.64, 5
82.65, 3
82.66, 7
82.67, 3
82.68, 2
82.69, 5
82.7, 1
82.71, 4
82.72, 2
82.73, 4
82.74, 4
82.75, 1
82.76, 2
82.77, 2
82.78, 5
82.79, 2
82.8, 2
82.81, 3
82.82, 4
82.83, 5
82.84, 3
82.85, 3
82.86, 5
82.87, 6
82.88, 3
82.89, 2
82.9, 3
82.91, 11
82.92, 0
82.93, 6
82.94, 6
82.95, 3
82.96, 3
82.97, 4
82.98, 2
82.99, 3
83, 3
83.01, 2
83.02, 4
83.03, 1
83.04, 4
83.05, 5
83.06, 2
83.07, 1
83.08, 3
83.09, 3
83.1, 1
83.11, 4
83.12, 4
83.13, 4
83.14, 3
83.15, 5
83.16, 5
83.17, 6
83.18, 3
83.19, 1
83.2, 2
83.21, 3
83.22, 3
83.23, 5
83.24, 7
83.25, 2
83.26, 0
83.27, 3
83.28, 5
83.29, 3
83.3, 5
83.31, 2
83.32, 2
83.33, 4
83.34, 6
83.35, 1
83.36, 5
83.37, 2
83.38, 1
83.39, 1
83.4, 3
83.41, 3
83.42, 2
83.43, 5
83.44, 2
83.45, 2
83.46, 4
83.47, 2
83.48, 4
83.49, 1
83.5, 3
83.51, 4
83.52, 3
83.53, 3
83.54, 6
83.55, 5
83.56, 4
83.57, 2
83.58, 0
83.59, 7
83.6, 3
83.61, 5
83.62, 2
83.63, 4
83.64, 5
83.65, 5
83.66, 6
83.67, 2
83.68, 5
83.69, 4
83.7, 2
83.71, 3
83.72, 4
83.73, 3
83.74, 2
83.75, 1
83.76, 2
83.77, 6
83.78, 3
83.79, 2
83.8, 3
83.81, 2
83.82, 1
83.83, 4
83.84, 2
83.85, 1
83.86, 1
83.87, 2
83.88, 5
83.89, 2
83.9, 4
83.91, 2
83.92, 7
83.93, 0
83.94, 4
83.95, 4
83.96, 1
83.97, 3
83.98, 0
83.99, 3
84, 2
84.01, 2
84.02, 6
84.03, 2
84.04, 5
84.05, 2
84.06, 3
84.07, 7
84.08, 3
84.09, 2
84.1, 5
84.11, 0
84.12, 3
84.13, 0
84.14, 3
84.15, 3
84.16, 1
84.17, 2
84.18, 5
84.19, 6
84.2, 2
84.21, 2
84.22, 2
84.23, 3
84.24, 2
84.25, 5
84.26, 8
84.27, 2
84.28, 2
84.29, 2
84.3, 4
84.31, 4
84.32, 3
84.33, 3
84.34, 1
84.35, 2
84.36, 3
84.37, 4
84.38, 0
84.39, 3
84.4, 2
84.41, 4
84.42, 3
84.43, 4
84.44, 5
84.45, 4
84.46, 3
84.47, 4
84.48, 11
84.49, 5
84.5, 1
84.51, 2
84.52, 4
84.53, 1
84.54, 4
84.55, 1
84.56, 5
84.57, 4
84.58, 4
84.59, 3
84.6, 2
84.61, 2
84.62, 3
84.63, 3
84.64, 8
84.65, 2
84.66, 4
84.67, 4
84.68, 5
84.69, 4
84.7, 3
84.71, 4
84.72, 5
84.73, 0
84.74, 6
84.75, 5
84.76, 5
84.77, 8
84.78, 5
84.79, 1
84.8, 1
84.81, 0
84.82, 2
84.83, 6
84.84, 1
84.85, 3
84.86, 4
84.87, 4
84.88, 2
84.89, 2
84.9, 0
84.91, 5
84.92, 2
84.93, 2
84.94, 1
84.95, 4
84.96, 2
84.97, 8
84.98, 0
84.99, 4
85, 2
85.01, 2
85.02, 4
85.03, 4
85.04, 2
85.05, 4
85.06, 6
85.07, 4
85.08, 4
85.09, 6
85.1, 3
85.11, 4
85.12, 5
85.13, 3
85.14, 3
85.15, 2
85.16, 3
85.17, 4
85.18, 1
85.19, 5
85.2, 3
85.21, 6
85.22, 5
85.23, 1
85.24, 5
85.25, 5
85.26, 0
85.27, 2
85.28, 3
85.29, 4
85.3, 5
85.31, 4
85.32, 4
85.33, 6
85.34, 3
85.35, 0
85.36, 1
85.37, 3
85.38, 7
85.39, 2
85.4, 1
85.41, 3
85.42, 0
85.43, 3
85.44, 4
85.45, 0
85.46, 3
85.47, 5
85.48, 3
85.49, 4
85.5, 2
85.51, 3
85.52, 3
85.53, 6
85.54, 1
85.55, 3
85.56, 4
85.57, 1
85.58, 3
85.59, 2
85.6, 7
85.61, 2
85.62, 5
85.63, 2
85.64, 4
85.65, 5
85.66, 3
85.67, 1
85.68, 5
85.69, 1
85.7, 5
85.71, 1
85.72, 4
85.73, 3
85.74, 6
85.75, 1
85.76, 4
85.77, 5
85.78, 2
85.79, 7
85.8, 5
85.81, 3
85.82, 5
85.83, 5
85.84, 2
85.85, 2
85.86, 4
85.87, 1
85.88, 4
85.89, 5
85.9, 5
85.91, 1
85.92, 4
85.93, 1
85.94, 2
85.95, 2
85.96, 0
85.97, 7
85.98, 1
85.99, 2
86, 3
86.01, 0
86.02, 4
86.03, 8
86.04, 6
86.05, 7
86.06, 5
86.07, 3
86.08, 0
86.09, 3
86.1, 9
86.11, 5
86.12, 4
86.13, 1
86.14, 7
86.15, 5
86.16, 6
86.17, 3
86.18, 2
86.19, 2
86.2, 5
86.21, 4
86.22, 7
86.23, 4
86.24, 5
86.25, 4
86.26, 3
86.27, 2
86.28, 6
86.29, 4
86.3, 3
86.31, 6
86.32, 6
86.33, 4
86.34, 7
86.35, 5
86.36, 4
86.37, 7
86.38, 5
86.39, 3
86.4, 3
86.41, 2
86.42, 1
86.43, 7
86.44, 5
86.45, 4
86.46, 3
86.47, 2
86.48, 3
86.49, 7
86.5, 10
86.51, 4
86.52, 4
86.53, 4
86.54, 7
86.55, 4
86.56, 5
86.57, 5
86.58, 5
86.59, 1
86.6, 6
86.61, 6
86.62, 7
86.63, 9
86.64, 2
86.65, 3
86.66, 8
86.67, 3
86.68, 4
86.69, 3
86.7, 6
86.71, 9
86.72, 3
86.73, 3
86.74, 10
86.75, 5
86.76, 7
86.77, 5
86.78, 5
86.79, 5
86.8, 6
86.81, 5
86.82, 8
86.83, 5
86.84, 9
86.85, 5
86.86, 4
86.87, 8
86.88, 6
86.89, 7
86.9, 11
86.91, 5
86.92, 5
86.93, 9
86.94, 11
86.95, 5
86.96, 8
86.97, 13
86.98, 11
86.99, 17
87, 12
87.01, 15
87.02, 7
87.03, 9
87.04, 6
87.05, 12
87.06, 13
87.07, 13
87.08, 12
87.09, 10
87.1, 8
87.11, 12
87.12, 7
87.13, 18
87.14, 14
87.15, 14
87.16, 13
87.17, 18
87.18, 23
87.19, 16
87.2, 27
87.21, 17
87.22, 28
87.23, 20
87.24, 22
87.25, 20
87.26, 32
87.27, 37
87.28, 38
87.29, 51
87.3, 44
87.31, 60
87.32, 58
87.33, 73
87.34, 98
87.35, 116
87.36, 143
87.37, 208
87.38, 334
87.39, 363
87.4, 507
87.41, 540
87.42, 497
87.43, 415
87.44, 278
87.45, 237
87.46, 194
87.47, 135
87.48, 117
87.49, 98
87.5, 77
87.51, 57
87.52, 46
87.53, 44
87.54, 45
87.55, 47
87.56, 30
87.57, 48
87.58, 55
87.59, 54
87.6, 53
87.61, 58
87.62, 69
87.63, 95
87.64, 116
87.65, 148
87.66, 208
87.67, 265
87.68, 256
87.69, 262
87.7, 210
87.71, 171
87.72, 150
87.73, 122
87.74, 89
87.75, 66
87.76, 43
87.77, 50
87.78, 35
87.79, 29
87.8, 28
87.81, 32
87.82, 25
87.83, 14
87.84, 18
87.85, 18
87.86, 12
87.87, 14
87.88, 16
87.89, 7
87.9, 16
87.91, 15
87.92, 16
87.93, 6
87.94, 12
87.95, 11
87.96, 8
87.97, 10
87.98, 10
87.99, 6
88, 15
88.01, 9
88.02, 8
88.03, 4
88.04, 20
88.05, 13
88.06, 9
88.07, 10
88.08, 7
88.09, 10
88.1, 4
88.11, 5
88.12, 8
88.13, 7
88.14, 4
88.15, 8
88.16, 8
88.17, 2
88.18, 10
88.19, 4
88.2, 9
88.21, 7
88.22, 8
88.23, 8
88.24, 6
88.25, 4
88.26, 9
88.27, 9
88.28, 9
88.29, 11
88.3, 7
88.31, 7
88.32, 6
88.33, 7
88.34, 5
88.35, 8
88.36, 7
88.37, 3
88.38, 8
88.39, 4
88.4, 4
88.41, 4
88.42, 6
88.43, 2
88.44, 5
88.45, 5
88.46, 6
88.47, 7
88.48, 5
88.49, 5
88.5, 4
88.51, 1
88.52, 5
88.53, 4
88.54, 1
88.55, 1
88.56, 2
88.57, 1
88.58, 5
88.59, 5
88.6, 3
88.61, 6
88.62, 5
88.63, 1
88.64, 5
88.65, 1
88.66, 3
88.67, 9
88.68, 6
88.69, 4
88.7, 5
88.71, 4
88.72, 9
88.73, 3
88.74, 5
88.75, 4
88.76, 5
88.77, 1
88.78, 1
88.79, 6
88.8, 5
88.81, 4
88.82, 10
88.83, 2
88.84, 5
88.85, 5
88.86, 4
88.87, 4
88.88, 4
88.89, 5
88.9, 5
88.91, 3
88.92, 3
88.93, 7
88.94, 5
88.95, 5
88.96, 2
88.97, 7
88.98, 0
88.99, 7
89, 1
89.01, 7
89.02, 1
89.03, 3
89.04, 4
89.05, 3
89.06, 2
89.07, 1
89.08, 4
89.09, 8
89.1, 3
89.11, 5
89.12, 1
89.13, 9
89.14, 5
89.15, 1
89.16, 1
89.17, 2
89.18, 2
89.19, 5
89.2, 1
89.21, 4
89.22, 5
89.23, 4
89.24, 0
89.25, 4
89.26, 2
89.27, 6
89.28, 2
89.29, 4
89.3, 2
89.31, 6
89.32, 7
89.33, 8
89.34, 4
89.35, 3
89.36, 3
89.37, 3
89.38, 4
89.39, 3
89.4, 5
89.41, 6
89.42, 5
89.43, 4
89.44, 6
89.45, 4
89.46, 9
89.47, 4
89.48, 6
89.49, 1
89.5, 3
89.51, 3
89.52, 1
89.53, 3
89.54, 0
89.55, 5
89.56, 4
89.57, 5
89.58, 2
89.59, 2
89.6, 4
89.61, 4
89.62, 5
89.63, 9
89.64, 4
89.65, 3
89.66, 3
89.67, 3
89.68, 4
89.69, 1
89.7, 1
89.71, 3
89.72, 4
89.73, 2
89.74, 6
89.75, 2
89.76, 2
89.77, 3
89.78, 3
89.79, 6
89.8, 2
89.81, 2
89.82, 4
89.83, 3
89.84, 3
89.85, 4
89.86, 3
89.87, 3
89.88, 2
89.89, 3
89.9, 2
89.91, 3
89.92, 3
89.93, 2
89.94, 5
89.95, 5
89.96, 4
89.97, 3
89.98, 3
89.99, 2
90, 3
##END=



