##NAMES=Kaolinite
##RRUFFID=R140004
##IDEAL CHEMISTRY=Al_2_Si_2_O_5_(OH)_4_
##LOCALITY=Guanajuato, Mexico
##OWNER=RRUFF
##SOURCE=Rock Currier
##DESCRIPTION=Consolidated fine-grained white powder
##STATUS=The identification of this mineral has been confirmed by X-ray diffraction
##URL=https://www.rruff.net/odr/rruff_sample/R140004
##DIFFRACTION SAMPLE DESCRIPTION=Powder
##CELL PARAMETERS=a: 5.149 b: 8.94 c: 7.398 alpha: 91.68 beta: 104.74 gamma: 89.79 volume: 329.2 crystal system: triclinic
##FILETYPE=RAW Powder Diffraction Profile

5, 215
5.01, 224
5.02, 264
5.03, 234
5.04, 220
5.05, 213
5.06, 239
5.07, 222
5.08, 218
5.09, 220
5.1, 216
5.11, 201
5.12, 254
5.13, 230
5.14, 227
5.15, 244
5.16, 236
5.17, 219
5.18, 221
5.19, 224
5.2, 211
5.21, 209
5.22, 221
5.23, 225
5.24, 231
5.25, 241
5.26, 235
5.27, 246
5.28, 216
5.29, 220
5.3, 219
5.31, 216
5.32, 198
5.33, 224
5.34, 225
5.35, 193
5.36, 219
5.37, 248
5.38, 231
5.39, 210
5.4, 200
5.41, 248
5.42, 245
5.43, 204
5.44, 198
5.45, 182
5.46, 211
5.47, 211
5.48, 224
5.49, 206
5.5, 243
5.51, 210
5.52, 214
5.53, 213
5.54, 214
5.55, 218
5.56, 193
5.57, 215
5.58, 222
5.59, 213
5.6, 201
5.61, 215
5.62, 208
5.63, 215
5.64, 241
5.65, 234
5.66, 183
5.67, 209
5.68, 195
5.69, 189
5.7, 214
5.71, 224
5.72, 200
5.73, 213
5.74, 222
5.75, 227
5.76, 223
5.77, 201
5.78, 202
5.79, 203
5.8, 208
5.81, 201
5.82, 203
5.83, 208
5.84, 197
5.85, 188
5.86, 191
5.87, 199
5.88, 175
5.89, 190
5.9, 200
5.91, 196
5.92, 211
5.93, 211
5.94, 201
5.95, 193
5.96, 182
5.97, 200
5.98, 214
5.99, 217
6, 190
6.01, 180
6.02, 196
6.03, 190
6.04, 191
6.05, 178
6.06, 172
6.07, 201
6.08, 194
6.09, 191
6.1, 165
6.11, 186
6.12, 206
6.13, 174
6.14, 190
6.15, 186
6.16, 178
6.17, 185
6.18, 185
6.19, 197
6.2, 177
6.21, 192
6.22, 206
6.23, 197
6.24, 180
6.25, 179
6.26, 175
6.27, 203
6.28, 202
6.29, 183
6.3, 197
6.31, 185
6.32, 207
6.33, 199
6.34, 165
6.35, 208
6.36, 167
6.37, 204
6.38, 178
6.39, 180
6.4, 180
6.41, 165
6.42, 181
6.43, 186
6.44, 181
6.45, 147
6.46, 151
6.47, 168
6.48, 180
6.49, 180
6.5, 185
6.51, 175
6.52, 217
6.53, 191
6.54, 177
6.55, 198
6.56, 179
6.57, 201
6.58, 186
6.59, 193
6.6, 200
6.61, 194
6.62, 192
6.63, 184
6.64, 163
6.65, 155
6.66, 177
6.67, 167
6.68, 166
6.69, 184
6.7, 177
6.71, 175
6.72, 175
6.73, 191
6.74, 167
6.75, 175
6.76, 169
6.77, 185
6.78, 204
6.79, 158
6.8, 165
6.81, 168
6.82, 166
6.83, 196
6.84, 184
6.85, 190
6.86, 186
6.87, 165
6.88, 152
6.89, 195
6.9, 184
6.91, 185
6.92, 182
6.93, 178
6.94, 167
6.95, 197
6.96, 163
6.97, 165
6.98, 164
6.99, 178
7, 182
7.01, 181
7.02, 169
7.03, 181
7.04, 188
7.05, 211
7.06, 171
7.07, 185
7.08, 161
7.09, 171
7.1, 187
7.11, 155
7.12, 194
7.13, 180
7.14, 187
7.15, 190
7.16, 165
7.17, 148
7.18, 165
7.19, 175
7.2, 173
7.21, 161
7.22, 196
7.23, 187
7.24, 180
7.25, 178
7.26, 176
7.27, 170
7.28, 200
7.29, 171
7.3, 164
7.31, 184
7.32, 166
7.33, 145
7.34, 175
7.35, 172
7.36, 167
7.37, 171
7.38, 158
7.39, 175
7.4, 189
7.41, 182
7.42, 176
7.43, 182
7.44, 181
7.45, 185
7.46, 177
7.47, 165
7.48, 211
7.49, 199
7.5, 178
7.51, 203
7.52, 169
7.53, 172
7.54, 172
7.55, 173
7.56, 184
7.57, 166
7.58, 172
7.59, 180
7.6, 175
7.61, 187
7.62, 168
7.63, 198
7.64, 195
7.65, 167
7.66, 202
7.67, 182
7.68, 181
7.69, 181
7.7, 153
7.71, 168
7.72, 186
7.73, 176
7.74, 180
7.75, 149
7.76, 146
7.77, 191
7.78, 195
7.79, 170
7.8, 166
7.81, 167
7.82, 181
7.83, 163
7.84, 143
7.85, 159
7.86, 181
7.87, 197
7.88, 134
7.89, 171
7.9, 146
7.91, 181
7.92, 168
7.93, 165
7.94, 155
7.95, 165
7.96, 157
7.97, 183
7.98, 189
7.99, 190
8, 208
8.01, 160
8.02, 170
8.03, 150
8.04, 173
8.05, 165
8.06, 187
8.07, 144
8.08, 168
8.09, 182
8.1, 151
8.11, 167
8.12, 165
8.13, 184
8.14, 164
8.15, 160
8.16, 172
8.17, 146
8.18, 168
8.19, 168
8.2, 144
8.21, 149
8.22, 162
8.23, 142
8.24, 162
8.25, 149
8.26, 170
8.27, 157
8.28, 157
8.29, 156
8.3, 157
8.31, 180
8.32, 170
8.33, 152
8.34, 146
8.35, 146
8.36, 150
8.37, 139
8.38, 150
8.39, 149
8.4, 116
8.41, 127
8.42, 147
8.43, 138
8.44, 141
8.45, 143
8.46, 134
8.47, 137
8.48, 139
8.49, 126
8.5, 115
8.51, 143
8.52, 145
8.53, 126
8.54, 135
8.55, 137
8.56, 140
8.57, 132
8.58, 109
8.59, 167
8.6, 129
8.61, 139
8.62, 146
8.63, 149
8.64, 128
8.65, 146
8.66, 147
8.67, 138
8.68, 137
8.69, 128
8.7, 122
8.71, 120
8.72, 141
8.73, 134
8.74, 112
8.75, 129
8.76, 159
8.77, 121
8.78, 131
8.79, 127
8.8, 130
8.81, 123
8.82, 138
8.83, 114
8.84, 145
8.85, 123
8.86, 120
8.87, 111
8.88, 134
8.89, 111
8.9, 139
8.91, 118
8.92, 116
8.93, 138
8.94, 124
8.95, 126
8.96, 117
8.97, 120
8.98, 114
8.99, 137
9, 103
9.01, 112
9.02, 111
9.03, 97
9.04, 102
9.05, 115
9.06, 112
9.07, 78
9.08, 93
9.09, 104
9.1, 108
9.11, 94
9.12, 101
9.13, 115
9.14, 108
9.15, 102
9.16, 102
9.17, 114
9.18, 105
9.19, 86
9.2, 86
9.21, 91
9.22, 128
9.23, 87
9.24, 107
9.25, 112
9.26, 95
9.27, 103
9.28, 106
9.29, 86
9.3, 85
9.31, 97
9.32, 86
9.33, 103
9.34, 104
9.35, 95
9.36, 85
9.37, 97
9.38, 99
9.39, 90
9.4, 90
9.41, 89
9.42, 110
9.43, 86
9.44, 93
9.45, 104
9.46, 98
9.47, 108
9.48, 72
9.49, 92
9.5, 98
9.51, 93
9.52, 95
9.53, 113
9.54, 92
9.55, 92
9.56, 71
9.57, 82
9.58, 97
9.59, 101
9.6, 103
9.61, 86
9.62, 100
9.63, 119
9.64, 88
9.65, 100
9.66, 90
9.67, 94
9.68, 93
9.69, 97
9.7, 98
9.71, 81
9.72, 85
9.73, 100
9.74, 87
9.75, 108
9.76, 111
9.77, 88
9.78, 88
9.79, 83
9.8, 95
9.81, 96
9.82, 96
9.83, 89
9.84, 110
9.85, 78
9.86, 85
9.87, 92
9.88, 99
9.89, 79
9.9, 110
9.91, 88
9.92, 83
9.93, 87
9.94, 107
9.95, 96
9.96, 102
9.97, 89
9.98, 101
9.99, 97
10, 90
10.01, 84
10.02, 85
10.03, 75
10.04, 102
10.05, 115
10.06, 95
10.07, 84
10.08, 100
10.09, 96
10.1, 98
10.11, 100
10.12, 110
10.13, 98
10.14, 92
10.15, 85
10.16, 100
10.17, 95
10.18, 104
10.19, 102
10.2, 91
10.21, 88
10.22, 94
10.23, 80
10.24, 99
10.25, 89
10.26, 113
10.27, 110
10.28, 119
10.29, 103
10.3, 84
10.31, 107
10.32, 108
10.33, 81
10.34, 89
10.35, 99
10.36, 97
10.37, 105
10.38, 98
10.39, 94
10.4, 106
10.41, 88
10.42, 109
10.43, 90
10.44, 93
10.45, 89
10.46, 95
10.47, 82
10.48, 114
10.49, 115
10.5, 86
10.51, 93
10.52, 98
10.53, 98
10.54, 87
10.55, 110
10.56, 118
10.57, 114
10.58, 127
10.59, 99
10.6, 123
10.61, 96
10.62, 89
10.63, 80
10.64, 95
10.65, 94
10.66, 116
10.67, 118
10.68, 96
10.69, 88
10.7, 107
10.71, 96
10.72, 102
10.73, 95
10.74, 99
10.75, 104
10.76, 118
10.77, 81
10.78, 94
10.79, 98
10.8, 108
10.81, 98
10.82, 101
10.83, 101
10.84, 103
10.85, 83
10.86, 111
10.87, 97
10.88, 100
10.89, 92
10.9, 92
10.91, 107
10.92, 89
10.93, 92
10.94, 91
10.95, 122
10.96, 127
10.97, 92
10.98, 108
10.99, 89
11, 93
11.01, 100
11.02, 106
11.03, 107
11.04, 101
11.05, 111
11.06, 119
11.07, 121
11.08, 100
11.09, 116
11.1, 101
11.11, 111
11.12, 127
11.13, 110
11.14, 121
11.15, 112
11.16, 117
11.17, 133
11.18, 131
11.19, 151
11.2, 140
11.21, 131
11.22, 133
11.23, 131
11.24, 133
11.25, 107
11.26, 105
11.27, 108
11.28, 121
11.29, 120
11.3, 104
11.31, 119
11.32, 115
11.33, 123
11.34, 117
11.35, 109
11.36, 92
11.37, 110
11.38, 123
11.39, 99
11.4, 108
11.41, 102
11.42, 106
11.43, 109
11.44, 122
11.45, 97
11.46, 118
11.47, 103
11.48, 112
11.49, 105
11.5, 108
11.51, 120
11.52, 125
11.53, 133
11.54, 119
11.55, 102
11.56, 113
11.57, 117
11.58, 100
11.59, 100
11.6, 94
11.61, 130
11.62, 108
11.63, 112
11.64, 141
11.65, 126
11.66, 107
11.67, 103
11.68, 154
11.69, 112
11.7, 128
11.71, 121
11.72, 107
11.73, 110
11.74, 111
11.75, 116
11.76, 115
11.77, 111
11.78, 117
11.79, 128
11.8, 116
11.81, 126
11.82, 109
11.83, 128
11.84, 130
11.85, 139
11.86, 119
11.87, 130
11.88, 116
11.89, 144
11.9, 153
11.91, 133
11.92, 127
11.93, 117
11.94, 163
11.95, 131
11.96, 150
11.97, 162
11.98, 156
11.99, 150
12, 153
12.01, 165
12.02, 182
12.03, 162
12.04, 160
12.05, 158
12.06, 155
12.07, 161
12.08, 172
12.09, 188
12.1, 197
12.11, 193
12.12, 194
12.13, 208
12.14, 185
12.15, 222
12.16, 234
12.17, 221
12.18, 249
12.19, 264
12.2, 252
12.21, 280
12.22, 278
12.23, 316
12.24, 318
12.25, 346
12.26, 365
12.27, 417
12.28, 471
12.29, 491
12.3, 562
12.31, 608
12.32, 688
12.33, 795
12.34, 957
12.35, 1002
12.36, 1077
12.37, 1191
12.38, 1307
12.39, 1273
12.4, 1425
12.41, 1418
12.42, 1468
12.43, 1435
12.44, 1398
12.45, 1264
12.46, 1143
12.47, 1005
12.48, 909
12.49, 837
12.5, 645
12.51, 570
12.52, 495
12.53, 419
12.54, 419
12.55, 344
12.56, 296
12.57, 277
12.58, 276
12.59, 259
12.6, 233
12.61, 216
12.62, 220
12.63, 200
12.64, 183
12.65, 192
12.66, 180
12.67, 196
12.68, 170
12.69, 159
12.7, 138
12.71, 146
12.72, 166
12.73, 140
12.74, 147
12.75, 149
12.76, 120
12.77, 146
12.78, 131
12.79, 144
12.8, 147
12.81, 124
12.82, 141
12.83, 124
12.84, 105
12.85, 116
12.86, 114
12.87, 123
12.88, 125
12.89, 126
12.9, 141
12.91, 122
12.92, 117
12.93, 125
12.94, 96
12.95, 120
12.96, 101
12.97, 100
12.98, 112
12.99, 103
13, 127
13.01, 112
13.02, 123
13.03, 86
13.04, 112
13.05, 105
13.06, 120
13.07, 110
13.08, 101
13.09, 112
13.1, 108
13.11, 96
13.12, 100
13.13, 132
13.14, 103
13.15, 121
13.16, 95
13.17, 100
13.18, 119
13.19, 102
13.2, 115
13.21, 109
13.22, 94
13.23, 104
13.24, 117
13.25, 115
13.26, 131
13.27, 110
13.28, 134
13.29, 100
13.3, 94
13.31, 105
13.32, 113
13.33, 86
13.34, 93
13.35, 98
13.36, 99
13.37, 104
13.38, 106
13.39, 111
13.4, 84
13.41, 77
13.42, 102
13.43, 97
13.44, 95
13.45, 108
13.46, 82
13.47, 97
13.48, 90
13.49, 85
13.5, 118
13.51, 112
13.52, 127
13.53, 100
13.54, 101
13.55, 89
13.56, 84
13.57, 94
13.58, 102
13.59, 103
13.6, 103
13.61, 97
13.62, 96
13.63, 96
13.64, 95
13.65, 83
13.66, 106
13.67, 86
13.68, 85
13.69, 105
13.7, 105
13.71, 94
13.72, 111
13.73, 104
13.74, 96
13.75, 86
13.76, 94
13.77, 97
13.78, 101
13.79, 104
13.8, 93
13.81, 76
13.82, 96
13.83, 76
13.84, 104
13.85, 98
13.86, 85
13.87, 113
13.88, 100
13.89, 91
13.9, 102
13.91, 98
13.92, 102
13.93, 102
13.94, 103
13.95, 93
13.96, 86
13.97, 93
13.98, 90
13.99, 91
14, 104
14.01, 107
14.02, 85
14.03, 76
14.04, 106
14.05, 78
14.06, 85
14.07, 88
14.08, 81
14.09, 93
14.1, 101
14.11, 99
14.12, 100
14.13, 78
14.14, 87
14.15, 92
14.16, 88
14.17, 105
14.18, 100
14.19, 88
14.2, 97
14.21, 93
14.22, 96
14.23, 92
14.24, 88
14.25, 106
14.26, 100
14.27, 89
14.28, 80
14.29, 87
14.3, 92
14.31, 90
14.32, 78
14.33, 80
14.34, 67
14.35, 92
14.36, 81
14.37, 100
14.38, 96
14.39, 99
14.4, 89
14.41, 83
14.42, 92
14.43, 77
14.44, 81
14.45, 81
14.46, 97
14.47, 103
14.48, 101
14.49, 91
14.5, 75
14.51, 84
14.52, 86
14.53, 73
14.54, 92
14.55, 96
14.56, 84
14.57, 86
14.58, 85
14.59, 102
14.6, 76
14.61, 88
14.62, 92
14.63, 77
14.64, 85
14.65, 84
14.66, 71
14.67, 94
14.68, 76
14.69, 97
14.7, 94
14.71, 93
14.72, 94
14.73, 98
14.74, 96
14.75, 91
14.76, 101
14.77, 68
14.78, 77
14.79, 103
14.8, 83
14.81, 74
14.82, 79
14.83, 90
14.84, 97
14.85, 75
14.86, 81
14.87, 96
14.88, 73
14.89, 86
14.9, 66
14.91, 86
14.92, 86
14.93, 87
14.94, 66
14.95, 87
14.96, 83
14.97, 81
14.98, 87
14.99, 82
15, 97
15.01, 80
15.02, 85
15.03, 89
15.04, 77
15.05, 72
15.06, 82
15.07, 92
15.08, 83
15.09, 63
15.1, 82
15.11, 69
15.12, 79
15.13, 84
15.14, 90
15.15, 72
15.16, 73
15.17, 75
15.18, 87
15.19, 61
15.2, 82
15.21, 88
15.22, 73
15.23, 87
15.24, 83
15.25, 71
15.26, 90
15.27, 77
15.28, 90
15.29, 77
15.3, 96
15.31, 81
15.32, 96
15.33, 75
15.34, 81
15.35, 79
15.36, 74
15.37, 68
15.38, 77
15.39, 82
15.4, 92
15.41, 94
15.42, 75
15.43, 86
15.44, 74
15.45, 86
15.46, 89
15.47, 92
15.48, 89
15.49, 99
15.5, 106
15.51, 105
15.52, 119
15.53, 99
15.54, 99
15.55, 127
15.56, 119
15.57, 116
15.58, 120
15.59, 95
15.6, 129
15.61, 121
15.62, 99
15.63, 97
15.64, 80
15.65, 114
15.66, 93
15.67, 98
15.68, 88
15.69, 77
15.7, 70
15.71, 78
15.72, 93
15.73, 76
15.74, 86
15.75, 89
15.76, 81
15.77, 72
15.78, 73
15.79, 82
15.8, 94
15.81, 93
15.82, 68
15.83, 68
15.84, 72
15.85, 82
15.86, 63
15.87, 67
15.88, 80
15.89, 81
15.9, 80
15.91, 75
15.92, 99
15.93, 81
15.94, 74
15.95, 75
15.96, 88
15.97, 84
15.98, 78
15.99, 87
16, 71
16.01, 95
16.02, 71
16.03, 83
16.04, 68
16.05, 66
16.06, 83
16.07, 63
16.08, 71
16.09, 72
16.1, 65
16.11, 70
16.12, 79
16.13, 70
16.14, 70
16.15, 71
16.16, 74
16.17, 69
16.18, 61
16.19, 77
16.2, 79
16.21, 87
16.22, 83
16.23, 55
16.24, 79
16.25, 60
16.26, 60
16.27, 77
16.28, 81
16.29, 77
16.3, 66
16.31, 67
16.32, 75
16.33, 72
16.34, 65
16.35, 69
16.36, 69
16.37, 59
16.38, 72
16.39, 86
16.4, 82
16.41, 65
16.42, 85
16.43, 63
16.44, 68
16.45, 80
16.46, 72
16.47, 66
16.48, 67
16.49, 79
16.5, 54
16.51, 59
16.52, 76
16.53, 79
16.54, 66
16.55, 77
16.56, 53
16.57, 77
16.58, 68
16.59, 68
16.6, 91
16.61, 70
16.62, 80
16.63, 66
16.64, 54
16.65, 66
16.66, 67
16.67, 63
16.68, 84
16.69, 71
16.7, 71
16.71, 73
16.72, 72
16.73, 64
16.74, 61
16.75, 59
16.76, 75
16.77, 57
16.78, 66
16.79, 60
16.8, 62
16.81, 75
16.82, 55
16.83, 67
16.84, 66
16.85, 73
16.86, 71
16.87, 77
16.88, 65
16.89, 65
16.9, 64
16.91, 74
16.92, 62
16.93, 60
16.94, 71
16.95, 86
16.96, 75
16.97, 64
16.98, 79
16.99, 63
17, 63
17.01, 76
17.02, 71
17.03, 65
17.04, 75
17.05, 74
17.06, 52
17.07, 85
17.08, 70
17.09, 67
17.1, 64
17.11, 74
17.12, 71
17.13, 62
17.14, 51
17.15, 80
17.16, 77
17.17, 74
17.18, 66
17.19, 67
17.2, 68
17.21, 76
17.22, 64
17.23, 62
17.24, 68
17.25, 81
17.26, 71
17.27, 59
17.28, 58
17.29, 63
17.3, 68
17.31, 75
17.32, 61
17.33, 69
17.34, 55
17.35, 74
17.36, 65
17.37, 64
17.38, 64
17.39, 56
17.4, 77
17.41, 63
17.42, 72
17.43, 56
17.44, 71
17.45, 51
17.46, 63
17.47, 50
17.48, 70
17.49, 77
17.5, 57
17.51, 61
17.52, 68
17.53, 78
17.54, 76
17.55, 65
17.56, 62
17.57, 51
17.58, 69
17.59, 74
17.6, 70
17.61, 62
17.62, 68
17.63, 67
17.64, 56
17.65, 69
17.66, 74
17.67, 65
17.68, 70
17.69, 71
17.7, 71
17.71, 69
17.72, 70
17.73, 60
17.74, 76
17.75, 64
17.76, 73
17.77, 62
17.78, 70
17.79, 72
17.8, 74
17.81, 87
17.82, 89
17.83, 74
17.84, 77
17.85, 98
17.86, 104
17.87, 103
17.88, 112
17.89, 108
17.9, 105
17.91, 128
17.92, 119
17.93, 140
17.94, 129
17.95, 133
17.96, 129
17.97, 153
17.98, 148
17.99, 145
18, 130
18.01, 128
18.02, 118
18.03, 117
18.04, 139
18.05, 134
18.06, 120
18.07, 124
18.08, 129
18.09, 141
18.1, 135
18.11, 169
18.12, 150
18.13, 174
18.14, 188
18.15, 196
18.16, 194
18.17, 178
18.18, 156
18.19, 145
18.2, 140
18.21, 143
18.22, 106
18.23, 104
18.24, 101
18.25, 110
18.26, 86
18.27, 93
18.28, 91
18.29, 75
18.3, 79
18.31, 69
18.32, 75
18.33, 59
18.34, 68
18.35, 71
18.36, 76
18.37, 82
18.38, 67
18.39, 81
18.4, 70
18.41, 82
18.42, 71
18.43, 77
18.44, 75
18.45, 81
18.46, 64
18.47, 73
18.48, 60
18.49, 66
18.5, 62
18.51, 66
18.52, 52
18.53, 71
18.54, 68
18.55, 61
18.56, 61
18.57, 76
18.58, 66
18.59, 67
18.6, 60
18.61, 53
18.62, 58
18.63, 59
18.64, 66
18.65, 68
18.66, 71
18.67, 80
18.68, 69
18.69, 79
18.7, 73
18.71, 80
18.72, 69
18.73, 66
18.74, 61
18.75, 60
18.76, 48
18.77, 73
18.78, 65
18.79, 50
18.8, 63
18.81, 67
18.82, 53
18.83, 51
18.84, 68
18.85, 63
18.86, 65
18.87, 64
18.88, 53
18.89, 70
18.9, 73
18.91, 48
18.92, 60
18.93, 60
18.94, 60
18.95, 66
18.96, 51
18.97, 53
18.98, 63
18.99, 70
19, 68
19.01, 60
19.02, 59
19.03, 64
19.04, 72
19.05, 65
19.06, 78
19.07, 61
19.08, 70
19.09, 45
19.1, 55
19.11, 65
19.12, 57
19.13, 78
19.14, 52
19.15, 66
19.16, 77
19.17, 62
19.18, 67
19.19, 56
19.2, 76
19.21, 83
19.22, 80
19.23, 73
19.24, 80
19.25, 70
19.26, 69
19.27, 65
19.28, 78
19.29, 87
19.3, 59
19.31, 66
19.32, 65
19.33, 68
19.34, 83
19.35, 80
19.36, 74
19.37, 67
19.38, 71
19.39, 78
19.4, 60
19.41, 67
19.42, 74
19.43, 59
19.44, 63
19.45, 67
19.46, 63
19.47, 81
19.48, 79
19.49, 79
19.5, 62
19.51, 74
19.52, 57
19.53, 76
19.54, 74
19.55, 55
19.56, 75
19.57, 81
19.58, 59
19.59, 65
19.6, 63
19.61, 61
19.62, 74
19.63, 78
19.64, 80
19.65, 81
19.66, 69
19.67, 81
19.68, 80
19.69, 70
19.7, 77
19.71, 64
19.72, 95
19.73, 100
19.74, 89
19.75, 101
19.76, 109
19.77, 110
19.78, 100
19.79, 118
19.8, 129
19.81, 144
19.82, 181
19.83, 169
19.84, 176
19.85, 225
19.86, 257
19.87, 274
19.88, 289
19.89, 310
19.9, 315
19.91, 371
19.92, 335
19.93, 384
19.94, 360
19.95, 333
19.96, 358
19.97, 322
19.98, 329
19.99, 277
20, 294
20.01, 236
20.02, 270
20.03, 270
20.04, 250
20.05, 230
20.06, 260
20.07, 216
20.08, 218
20.09, 231
20.1, 211
20.11, 201
20.12, 216
20.13, 215
20.14, 184
20.15, 222
20.16, 219
20.17, 194
20.18, 205
20.19, 212
20.2, 188
20.21, 207
20.22, 193
20.23, 209
20.24, 192
20.25, 196
20.26, 228
20.27, 230
20.28, 250
20.29, 227
20.3, 226
20.31, 276
20.32, 263
20.33, 312
20.34, 318
20.35, 330
20.36, 373
20.37, 432
20.38, 454
20.39, 471
20.4, 464
20.41, 559
20.42, 498
20.43, 435
20.44, 481
20.45, 494
20.46, 447
20.47, 434
20.48, 359
20.49, 375
20.5, 331
20.51, 317
20.52, 308
20.53, 263
20.54, 277
20.55, 265
20.56, 261
20.57, 240
20.58, 237
20.59, 223
20.6, 259
20.61, 221
20.62, 221
20.63, 242
20.64, 233
20.65, 209
20.66, 260
20.67, 238
20.68, 196
20.69, 212
20.7, 207
20.71, 219
20.72, 217
20.73, 251
20.74, 250
20.75, 194
20.76, 219
20.77, 203
20.78, 203
20.79, 224
20.8, 241
20.81, 189
20.82, 237
20.83, 227
20.84, 229
20.85, 234
20.86, 225
20.87, 230
20.88, 217
20.89, 230
20.9, 240
20.91, 226
20.92, 213
20.93, 212
20.94, 201
20.95, 215
20.96, 212
20.97, 199
20.98, 192
20.99, 199
21, 205
21.01, 196
21.02, 204
21.03, 200
21.04, 236
21.05, 182
21.06, 208
21.07, 169
21.08, 212
21.09, 227
21.1, 189
21.11, 195
21.12, 199
21.13, 206
21.14, 219
21.15, 208
21.16, 201
21.17, 220
21.18, 231
21.19, 243
21.2, 269
21.21, 265
21.22, 283
21.23, 284
21.24, 323
21.25, 345
21.26, 377
21.27, 390
21.28, 460
21.29, 406
21.3, 397
21.31, 393
21.32, 403
21.33, 445
21.34, 395
21.35, 406
21.36, 352
21.37, 332
21.38, 323
21.39, 315
21.4, 284
21.41, 313
21.42, 275
21.43, 257
21.44, 233
21.45, 262
21.46, 248
21.47, 268
21.48, 279
21.49, 238
21.5, 290
21.51, 270
21.52, 276
21.53, 266
21.54, 313
21.55, 290
21.56, 289
21.57, 281
21.58, 272
21.59, 269
21.6, 265
21.61, 240
21.62, 211
21.63, 228
21.64, 244
21.65, 234
21.66, 217
21.67, 207
21.68, 191
21.69, 176
21.7, 166
21.71, 167
21.72, 156
21.73, 187
21.74, 163
21.75, 153
21.76, 161
21.77, 149
21.78, 150
21.79, 156
21.8, 158
21.81, 171
21.82, 151
21.83, 163
21.84, 150
21.85, 161
21.86, 149
21.87, 148
21.88, 166
21.89, 153
21.9, 121
21.91, 144
21.92, 153
21.93, 148
21.94, 152
21.95, 131
21.96, 136
21.97, 142
21.98, 117
21.99, 151
22, 143
22.01, 154
22.02, 136
22.03, 142
22.04, 132
22.05, 131
22.06, 145
22.07, 163
22.08, 123
22.09, 147
22.1, 146
22.11, 129
22.12, 145
22.13, 143
22.14, 130
22.15, 158
22.16, 144
22.17, 144
22.18, 162
22.19, 138
22.2, 144
22.21, 155
22.22, 128
22.23, 154
22.24, 140
22.25, 150
22.26, 129
22.27, 146
22.28, 136
22.29, 130
22.3, 133
22.31, 133
22.32, 130
22.33, 151
22.34, 134
22.35, 131
22.36, 139
22.37, 137
22.38, 128
22.39, 124
22.4, 145
22.41, 135
22.42, 156
22.43, 134
22.44, 128
22.45, 121
22.46, 140
22.47, 156
22.48, 149
22.49, 135
22.5, 140
22.51, 164
22.52, 136
22.53, 143
22.54, 132
22.55, 117
22.56, 151
22.57, 124
22.58, 140
22.59, 122
22.6, 110
22.61, 133
22.62, 138
22.63, 109
22.64, 122
22.65, 112
22.66, 129
22.67, 101
22.68, 105
22.69, 117
22.7, 115
22.71, 122
22.72, 122
22.73, 132
22.74, 110
22.75, 121
22.76, 118
22.77, 118
22.78, 118
22.79, 113
22.8, 106
22.81, 118
22.82, 114
22.83, 115
22.84, 123
22.85, 143
22.86, 124
22.87, 132
22.88, 127
22.89, 102
22.9, 102
22.91, 132
22.92, 121
22.93, 123
22.94, 119
22.95, 113
22.96, 112
22.97, 131
22.98, 127
22.99, 132
23, 124
23.01, 123
23.02, 147
23.03, 135
23.04, 146
23.05, 158
23.06, 147
23.07, 169
23.08, 172
23.09, 157
23.1, 165
23.11, 180
23.12, 229
23.13, 222
23.14, 232
23.15, 228
23.16, 253
23.17, 227
23.18, 259
23.19, 230
23.2, 278
23.21, 252
23.22, 224
23.23, 243
23.24, 230
23.25, 210
23.26, 215
23.27, 213
23.28, 190
23.29, 155
23.3, 157
23.31, 152
23.32, 128
23.33, 164
23.34, 122
23.35, 128
23.36, 128
23.37, 123
23.38, 118
23.39, 113
23.4, 110
23.41, 105
23.42, 108
23.43, 99
23.44, 107
23.45, 103
23.46, 112
23.47, 94
23.48, 115
23.49, 92
23.5, 102
23.51, 118
23.52, 110
23.53, 103
23.54, 102
23.55, 95
23.56, 87
23.57, 101
23.58, 95
23.59, 75
23.6, 100
23.61, 102
23.62, 102
23.63, 98
23.64, 77
23.65, 100
23.66, 74
23.67, 92
23.68, 106
23.69, 110
23.7, 115
23.71, 107
23.72, 109
23.73, 114
23.74, 133
23.75, 148
23.76, 138
23.77, 125
23.78, 151
23.79, 157
23.8, 157
23.81, 138
23.82, 170
23.83, 148
23.84, 138
23.85, 155
23.86, 165
23.87, 148
23.88, 149
23.89, 134
23.9, 145
23.91, 125
23.92, 131
23.93, 120
23.94, 118
23.95, 117
23.96, 121
23.97, 90
23.98, 104
23.99, 104
24, 99
24.01, 137
24.02, 96
24.03, 120
24.04, 101
24.05, 95
24.06, 90
24.07, 94
24.08, 92
24.09, 88
24.1, 92
24.11, 108
24.12, 93
24.13, 95
24.14, 92
24.15, 96
24.16, 92
24.17, 96
24.18, 98
24.19, 86
24.2, 105
24.21, 92
24.22, 95
24.23, 93
24.24, 103
24.25, 89
24.26, 83
24.27, 100
24.28, 111
24.29, 98
24.3, 99
24.31, 109
24.32, 93
24.33, 87
24.34, 96
24.35, 102
24.36, 106
24.37, 100
24.38, 79
24.39, 95
24.4, 101
24.41, 94
24.42, 94
24.43, 127
24.44, 93
24.45, 97
24.46, 113
24.47, 119
24.48, 97
24.49, 102
24.5, 95
24.51, 97
24.52, 121
24.53, 111
24.54, 106
24.55, 91
24.56, 109
24.57, 114
24.58, 98
24.59, 106
24.6, 124
24.61, 127
24.62, 136
24.63, 141
24.64, 124
24.65, 131
24.66, 136
24.67, 147
24.68, 133
24.69, 148
24.7, 147
24.71, 184
24.72, 188
24.73, 180
24.74, 193
24.75, 211
24.76, 225
24.77, 236
24.78, 254
24.79, 262
24.8, 299
24.81, 312
24.82, 340
24.83, 350
24.84, 419
24.85, 455
24.86, 526
24.87, 591
24.88, 696
24.89, 733
24.9, 845
24.91, 873
24.92, 946
24.93, 937
24.94, 1037
24.95, 932
24.96, 990
24.97, 898
24.98, 925
24.99, 818
25, 747
25.01, 666
25.02, 625
25.03, 571
25.04, 491
25.05, 450
25.06, 388
25.07, 350
25.08, 290
25.09, 260
25.1, 235
25.11, 218
25.12, 217
25.13, 208
25.14, 192
25.15, 185
25.16, 193
25.17, 169
25.18, 169
25.19, 157
25.2, 154
25.21, 154
25.22, 143
25.23, 141
25.24, 149
25.25, 154
25.26, 119
25.27, 128
25.28, 119
25.29, 118
25.3, 130
25.31, 118
25.32, 125
25.33, 120
25.34, 92
25.35, 104
25.36, 114
25.37, 105
25.38, 90
25.39, 110
25.4, 103
25.41, 117
25.42, 104
25.43, 117
25.44, 106
25.45, 128
25.46, 121
25.47, 129
25.48, 136
25.49, 123
25.5, 129
25.51, 128
25.52, 183
25.53, 169
25.54, 152
25.55, 179
25.56, 193
25.57, 172
25.58, 165
25.59, 147
25.6, 147
25.61, 163
25.62, 137
25.63, 125
25.64, 140
25.65, 131
25.66, 110
25.67, 95
25.68, 107
25.69, 100
25.7, 108
25.71, 86
25.72, 96
25.73, 114
25.74, 106
25.75, 86
25.76, 97
25.77, 90
25.78, 107
25.79, 82
25.8, 94
25.81, 81
25.82, 90
25.83, 92
25.84, 101
25.85, 86
25.86, 77
25.87, 79
25.88, 85
25.89, 81
25.9, 96
25.91, 94
25.92, 79
25.93, 100
25.94, 101
25.95, 75
25.96, 87
25.97, 99
25.98, 90
25.99, 95
26, 79
26.01, 89
26.02, 83
26.03, 90
26.04, 84
26.05, 93
26.06, 74
26.07, 99
26.08, 96
26.09, 100
26.1, 98
26.11, 74
26.12, 84
26.13, 107
26.14, 77
26.15, 85
26.16, 88
26.17, 96
26.18, 84
26.19, 74
26.2, 83
26.21, 99
26.22, 94
26.23, 97
26.24, 129
26.25, 104
26.26, 111
26.27, 94
26.28, 109
26.29, 97
26.3, 104
26.31, 98
26.32, 119
26.33, 112
26.34, 113
26.35, 130
26.36, 124
26.37, 123
26.38, 143
26.39, 155
26.4, 152
26.41, 173
26.42, 149
26.43, 171
26.44, 153
26.45, 181
26.46, 183
26.47, 144
26.48, 155
26.49, 162
26.5, 133
26.51, 147
26.52, 145
26.53, 130
26.54, 119
26.55, 118
26.56, 124
26.57, 109
26.58, 112
26.59, 117
26.6, 96
26.61, 85
26.62, 95
26.63, 97
26.64, 83
26.65, 78
26.66, 90
26.67, 72
26.68, 77
26.69, 86
26.7, 72
26.71, 78
26.72, 66
26.73, 66
26.74, 83
26.75, 79
26.76, 70
26.77, 82
26.78, 69
26.79, 77
26.8, 71
26.81, 80
26.82, 79
26.83, 69
26.84, 76
26.85, 79
26.86, 77
26.87, 78
26.88, 60
26.89, 77
26.9, 51
26.91, 80
26.92, 77
26.93, 86
26.94, 76
26.95, 80
26.96, 63
26.97, 76
26.98, 71
26.99, 68
27, 77
27.01, 72
27.02, 67
27.03, 63
27.04, 70
27.05, 69
27.06, 72
27.07, 69
27.08, 64
27.09, 66
27.1, 71
27.11, 84
27.12, 74
27.13, 63
27.14, 76
27.15, 55
27.16, 62
27.17, 82
27.18, 53
27.19, 61
27.2, 74
27.21, 82
27.22, 60
27.23, 65
27.24, 73
27.25, 85
27.26, 68
27.27, 78
27.28, 55
27.29, 67
27.3, 66
27.31, 85
27.32, 68
27.33, 57
27.34, 86
27.35, 53
27.36, 73
27.37, 62
27.38, 65
27.39, 73
27.4, 70
27.41, 71
27.42, 65
27.43, 63
27.44, 66
27.45, 62
27.46, 55
27.47, 63
27.48, 71
27.49, 64
27.5, 72
27.51, 88
27.52, 72
27.53, 65
27.54, 53
27.55, 61
27.56, 48
27.57, 69
27.58, 47
27.59, 60
27.6, 67
27.61, 59
27.62, 68
27.63, 64
27.64, 67
27.65, 83
27.66, 61
27.67, 52
27.68, 63
27.69, 50
27.7, 58
27.71, 57
27.72, 61
27.73, 54
27.74, 53
27.75, 78
27.76, 57
27.77, 74
27.78, 65
27.79, 72
27.8, 62
27.81, 60
27.82, 60
27.83, 69
27.84, 61
27.85, 62
27.86, 66
27.87, 52
27.88, 77
27.89, 59
27.9, 69
27.91, 48
27.92, 62
27.93, 71
27.94, 67
27.95, 66
27.96, 52
27.97, 57
27.98, 63
27.99, 63
28, 58
28.01, 67
28.02, 64
28.03, 63
28.04, 67
28.05, 49
28.06, 66
28.07, 68
28.08, 64
28.09, 70
28.1, 70
28.11, 76
28.12, 74
28.13, 65
28.14, 62
28.15, 59
28.16, 63
28.17, 66
28.18, 53
28.19, 59
28.2, 65
28.21, 64
28.22, 66
28.23, 64
28.24, 54
28.25, 56
28.26, 77
28.27, 63
28.28, 77
28.29, 66
28.3, 74
28.31, 84
28.32, 91
28.33, 89
28.34, 84
28.35, 102
28.36, 85
28.37, 83
28.38, 79
28.39, 65
28.4, 80
28.41, 64
28.42, 71
28.43, 55
28.44, 70
28.45, 76
28.46, 77
28.47, 75
28.48, 71
28.49, 66
28.5, 69
28.51, 73
28.52, 71
28.53, 83
28.54, 66
28.55, 68
28.56, 58
28.57, 78
28.58, 58
28.59, 84
28.6, 74
28.61, 68
28.62, 52
28.63, 71
28.64, 75
28.65, 66
28.66, 78
28.67, 88
28.68, 80
28.69, 72
28.7, 65
28.71, 60
28.72, 88
28.73, 72
28.74, 76
28.75, 87
28.76, 85
28.77, 77
28.78, 88
28.79, 85
28.8, 71
28.81, 97
28.82, 75
28.83, 79
28.84, 89
28.85, 89
28.86, 67
28.87, 66
28.88, 71
28.89, 61
28.9, 79
28.91, 75
28.92, 70
28.93, 69
28.94, 55
28.95, 76
28.96, 60
28.97, 67
28.98, 73
28.99, 60
29, 74
29.01, 59
29.02, 70
29.03, 55
29.04, 59
29.05, 51
29.06, 84
29.07, 56
29.08, 59
29.09, 65
29.1, 58
29.11, 67
29.12, 56
29.13, 46
29.14, 78
29.15, 57
29.16, 47
29.17, 63
29.18, 55
29.19, 62
29.2, 61
29.21, 56
29.22, 59
29.23, 70
29.24, 46
29.25, 63
29.26, 63
29.27, 72
29.28, 56
29.29, 65
29.3, 72
29.31, 67
29.32, 64
29.33, 62
29.34, 52
29.35, 50
29.36, 60
29.37, 56
29.38, 73
29.39, 65
29.4, 57
29.41, 66
29.42, 69
29.43, 73
29.44, 64
29.45, 60
29.46, 65
29.47, 55
29.48, 66
29.49, 49
29.5, 62
29.51, 67
29.52, 65
29.53, 68
29.54, 50
29.55, 64
29.56, 70
29.57, 50
29.58, 42
29.59, 52
29.6, 41
29.61, 70
29.62, 57
29.63, 55
29.64, 65
29.65, 63
29.66, 75
29.67, 64
29.68, 53
29.69, 64
29.7, 59
29.71, 75
29.72, 68
29.73, 78
29.74, 69
29.75, 59
29.76, 73
29.77, 69
29.78, 85
29.79, 99
29.8, 86
29.81, 78
29.82, 90
29.83, 97
29.84, 90
29.85, 104
29.86, 107
29.87, 122
29.88, 132
29.89, 157
29.9, 158
29.91, 162
29.92, 168
29.93, 204
29.94, 192
29.95, 198
29.96, 221
29.97, 221
29.98, 251
29.99, 228
30, 200
30.01, 228
30.02, 249
30.03, 205
30.04, 250
30.05, 231
30.06, 233
30.07, 218
30.08, 204
30.09, 218
30.1, 210
30.11, 178
30.12, 193
30.13, 170
30.14, 158
30.15, 174
30.16, 148
30.17, 151
30.18, 147
30.19, 164
30.2, 158
30.21, 181
30.22, 172
30.23, 200
30.24, 211
30.25, 164
30.26, 169
30.27, 170
30.28, 179
30.29, 168
30.3, 167
30.31, 153
30.32, 146
30.33, 158
30.34, 116
30.35, 119
30.36, 112
30.37, 87
30.38, 95
30.39, 87
30.4, 89
30.41, 68
30.42, 72
30.43, 73
30.44, 84
30.45, 71
30.46, 65
30.47, 80
30.48, 61
30.49, 57
30.5, 57
30.51, 76
30.52, 64
30.53, 56
30.54, 70
30.55, 48
30.56, 71
30.57, 66
30.58, 66
30.59, 58
30.6, 69
30.61, 65
30.62, 60
30.63, 70
30.64, 80
30.65, 56
30.66, 58
30.67, 66
30.68, 67
30.69, 69
30.7, 52
30.71, 64
30.72, 71
30.73, 56
30.74, 59
30.75, 60
30.76, 53
30.77, 56
30.78, 49
30.79, 58
30.8, 58
30.81, 60
30.82, 56
30.83, 63
30.84, 54
30.85, 58
30.86, 42
30.87, 60
30.88, 52
30.89, 63
30.9, 60
30.91, 59
30.92, 54
30.93, 54
30.94, 72
30.95, 69
30.96, 56
30.97, 48
30.98, 60
30.99, 65
31, 62
31.01, 76
31.02, 60
31.03, 69
31.04, 74
31.05, 64
31.06, 73
31.07, 56
31.08, 63
31.09, 62
31.1, 56
31.11, 52
31.12, 61
31.13, 59
31.14, 64
31.15, 60
31.16, 47
31.17, 63
31.18, 59
31.19, 67
31.2, 64
31.21, 45
31.22, 61
31.23, 59
31.24, 47
31.25, 49
31.26, 51
31.27, 54
31.28, 66
31.29, 50
31.3, 61
31.31, 59
31.32, 69
31.33, 50
31.34, 53
31.35, 42
31.36, 55
31.37, 46
31.38, 53
31.39, 59
31.4, 62
31.41, 56
31.42, 55
31.43, 47
31.44, 71
31.45, 59
31.46, 67
31.47, 52
31.48, 46
31.49, 58
31.5, 50
31.51, 59
31.52, 55
31.53, 54
31.54, 62
31.55, 65
31.56, 69
31.57, 59
31.58, 35
31.59, 60
31.6, 58
31.61, 63
31.62, 59
31.63, 62
31.64, 52
31.65, 65
31.66, 54
31.67, 68
31.68, 62
31.69, 73
31.7, 62
31.71, 48
31.72, 61
31.73, 68
31.74, 68
31.75, 44
31.76, 61
31.77, 56
31.78, 61
31.79, 52
31.8, 65
31.81, 58
31.82, 59
31.83, 62
31.84, 63
31.85, 75
31.86, 61
31.87, 56
31.88, 59
31.89, 59
31.9, 57
31.91, 57
31.92, 55
31.93, 45
31.94, 48
31.95, 58
31.96, 58
31.97, 66
31.98, 61
31.99, 68
32, 73
32.01, 53
32.02, 65
32.03, 68
32.04, 69
32.05, 69
32.06, 62
32.07, 60
32.08, 58
32.09, 68
32.1, 59
32.11, 67
32.12, 64
32.13, 52
32.14, 60
32.15, 51
32.16, 72
32.17, 67
32.18, 66
32.19, 54
32.2, 68
32.21, 54
32.22, 79
32.23, 70
32.24, 63
32.25, 54
32.26, 70
32.27, 65
32.28, 54
32.29, 83
32.3, 71
32.31, 65
32.32, 64
32.33, 50
32.34, 77
32.35, 63
32.36, 48
32.37, 64
32.38, 74
32.39, 57
32.4, 81
32.41, 39
32.42, 66
32.43, 75
32.44, 63
32.45, 82
32.46, 70
32.47, 56
32.48, 75
32.49, 62
32.5, 84
32.51, 66
32.52, 71
32.53, 85
32.54, 84
32.55, 67
32.56, 93
32.57, 85
32.58, 67
32.59, 83
32.6, 78
32.61, 48
32.62, 72
32.63, 72
32.64, 67
32.65, 65
32.66, 62
32.67, 91
32.68, 76
32.69, 62
32.7, 68
32.71, 61
32.72, 54
32.73, 49
32.74, 56
32.75, 50
32.76, 59
32.77, 50
32.78, 74
32.79, 51
32.8, 70
32.81, 57
32.82, 53
32.83, 45
32.84, 51
32.85, 56
32.86, 43
32.87, 46
32.88, 56
32.89, 37
32.9, 43
32.91, 53
32.92, 62
32.93, 58
32.94, 50
32.95, 44
32.96, 57
32.97, 45
32.98, 52
32.99, 47
33, 40
33.01, 44
33.02, 55
33.03, 64
33.04, 45
33.05, 60
33.06, 58
33.07, 51
33.08, 49
33.09, 61
33.1, 41
33.11, 44
33.12, 53
33.13, 54
33.14, 47
33.15, 44
33.16, 45
33.17, 46
33.18, 47
33.19, 49
33.2, 47
33.21, 53
33.22, 58
33.23, 42
33.24, 55
33.25, 46
33.26, 52
33.27, 46
33.28, 49
33.29, 62
33.3, 58
33.31, 54
33.32, 55
33.33, 33
33.34, 53
33.35, 54
33.36, 54
33.37, 47
33.38, 61
33.39, 61
33.4, 49
33.41, 50
33.42, 51
33.43, 59
33.44, 50
33.45, 50
33.46, 49
33.47, 46
33.48, 48
33.49, 45
33.5, 57
33.51, 56
33.52, 49
33.53, 42
33.54, 47
33.55, 60
33.56, 54
33.57, 41
33.58, 46
33.59, 41
33.6, 51
33.61, 50
33.62, 62
33.63, 45
33.64, 61
33.65, 50
33.66, 51
33.67, 69
33.68, 53
33.69, 50
33.7, 50
33.71, 47
33.72, 46
33.73, 55
33.74, 52
33.75, 59
33.76, 57
33.77, 60
33.78, 49
33.79, 57
33.8, 48
33.81, 61
33.82, 56
33.83, 53
33.84, 54
33.85, 56
33.86, 46
33.87, 62
33.88, 57
33.89, 56
33.9, 61
33.91, 57
33.92, 54
33.93, 51
33.94, 42
33.95, 60
33.96, 51
33.97, 55
33.98, 49
33.99, 62
34, 42
34.01, 57
34.02, 56
34.03, 59
34.04, 59
34.05, 53
34.06, 56
34.07, 57
34.08, 46
34.09, 61
34.1, 42
34.11, 37
34.12, 61
34.13, 65
34.14, 39
34.15, 49
34.16, 47
34.17, 58
34.18, 63
34.19, 53
34.2, 55
34.21, 50
34.22, 44
34.23, 34
34.24, 60
34.25, 47
34.26, 50
34.27, 55
34.28, 50
34.29, 52
34.3, 53
34.31, 68
34.32, 62
34.33, 62
34.34, 44
34.35, 45
34.36, 58
34.37, 52
34.38, 73
34.39, 60
34.4, 48
34.41, 54
34.42, 50
34.43, 51
34.44, 50
34.45, 74
34.46, 33
34.47, 42
34.48, 50
34.49, 58
34.5, 56
34.51, 58
34.52, 54
34.53, 51
34.54, 57
34.55, 57
34.56, 56
34.57, 62
34.58, 63
34.59, 56
34.6, 53
34.61, 61
34.62, 70
34.63, 60
34.64, 65
34.65, 62
34.66, 58
34.67, 62
34.68, 58
34.69, 56
34.7, 64
34.71, 61
34.72, 73
34.73, 71
34.74, 64
34.75, 71
34.76, 66
34.77, 67
34.78, 78
34.79, 72
34.8, 77
34.81, 64
34.82, 85
34.83, 68
34.84, 90
34.85, 87
34.86, 83
34.87, 81
34.88, 104
34.89, 97
34.9, 90
34.91, 123
34.92, 111
34.93, 118
34.94, 162
34.95, 152
34.96, 188
34.97, 165
34.98, 202
34.99, 206
35, 197
35.01, 229
35.02, 263
35.03, 275
35.04, 238
35.05, 245
35.06, 246
35.07, 231
35.08, 203
35.09, 237
35.1, 205
35.11, 203
35.12, 192
35.13, 186
35.14, 179
35.15, 224
35.16, 199
35.17, 196
35.18, 184
35.19, 142
35.2, 177
35.21, 161
35.22, 169
35.23, 128
35.24, 146
35.25, 178
35.26, 149
35.27, 120
35.28, 138
35.29, 141
35.3, 108
35.31, 130
35.32, 122
35.33, 127
35.34, 121
35.35, 108
35.36, 122
35.37, 114
35.38, 132
35.39, 136
35.4, 132
35.41, 144
35.42, 158
35.43, 162
35.44, 171
35.45, 193
35.46, 215
35.47, 188
35.48, 208
35.49, 203
35.5, 195
35.51, 196
35.52, 180
35.53, 181
35.54, 170
35.55, 188
35.56, 148
35.57, 174
35.58, 160
35.59, 172
35.6, 116
35.61, 127
35.62, 127
35.63, 116
35.64, 104
35.65, 102
35.66, 118
35.67, 118
35.68, 105
35.69, 105
35.7, 99
35.71, 126
35.72, 103
35.73, 111
35.74, 115
35.75, 114
35.76, 109
35.77, 99
35.78, 101
35.79, 103
35.8, 107
35.81, 100
35.82, 100
35.83, 118
35.84, 132
35.85, 124
35.86, 133
35.87, 126
35.88, 116
35.89, 154
35.9, 178
35.91, 162
35.92, 164
35.93, 205
35.94, 215
35.95, 228
35.96, 252
35.97, 253
35.98, 268
35.99, 236
36, 290
36.01, 258
36.02, 291
36.03, 259
36.04, 300
36.05, 304
36.06, 282
36.07, 290
36.08, 300
36.09, 269
36.1, 273
36.11, 267
36.12, 242
36.13, 217
36.14, 230
36.15, 197
36.16, 174
36.17, 195
36.18, 162
36.19, 149
36.2, 131
36.21, 140
36.22, 110
36.23, 116
36.24, 125
36.25, 107
36.26, 108
36.27, 92
36.28, 90
36.29, 105
36.3, 85
36.31, 87
36.32, 89
36.33, 96
36.34, 82
36.35, 88
36.36, 77
36.37, 82
36.38, 64
36.39, 76
36.4, 87
36.41, 57
36.42, 79
36.43, 75
36.44, 61
36.45, 71
36.46, 55
36.47, 70
36.48, 62
36.49, 54
36.5, 69
36.51, 74
36.52, 68
36.53, 61
36.54, 62
36.55, 55
36.56, 48
36.57, 68
36.58, 71
36.59, 70
36.6, 58
36.61, 65
36.62, 73
36.63, 55
36.64, 55
36.65, 74
36.66, 58
36.67, 45
36.68, 63
36.69, 69
36.7, 48
36.71, 51
36.72, 61
36.73, 50
36.74, 55
36.75, 73
36.76, 67
36.77, 60
36.78, 65
36.79, 82
36.8, 65
36.81, 68
36.82, 66
36.83, 53
36.84, 67
36.85, 51
36.86, 65
36.87, 56
36.88, 67
36.89, 67
36.9, 55
36.91, 60
36.92, 40
36.93, 47
36.94, 48
36.95, 38
36.96, 67
36.97, 46
36.98, 55
36.99, 63
37, 71
37.01, 44
37.02, 61
37.03, 65
37.04, 61
37.05, 60
37.06, 70
37.07, 63
37.08, 53
37.09, 62
37.1, 53
37.11, 53
37.12, 73
37.13, 53
37.14, 62
37.15, 64
37.16, 70
37.17, 49
37.18, 67
37.19, 55
37.2, 48
37.21, 52
37.22, 68
37.23, 65
37.24, 60
37.25, 56
37.26, 44
37.27, 69
37.28, 54
37.29, 52
37.3, 53
37.31, 63
37.32, 60
37.33, 59
37.34, 50
37.35, 76
37.36, 57
37.37, 56
37.38, 78
37.39, 67
37.4, 62
37.41, 67
37.42, 81
37.43, 61
37.44, 61
37.45, 59
37.46, 46
37.47, 69
37.48, 72
37.49, 55
37.5, 70
37.51, 60
37.52, 59
37.53, 76
37.54, 71
37.55, 72
37.56, 64
37.57, 50
37.58, 88
37.59, 63
37.6, 79
37.61, 77
37.62, 97
37.63, 83
37.64, 93
37.65, 101
37.66, 104
37.67, 101
37.68, 98
37.69, 109
37.7, 108
37.71, 124
37.72, 137
37.73, 130
37.74, 152
37.75, 157
37.76, 135
37.77, 154
37.78, 142
37.79, 131
37.8, 148
37.81, 154
37.82, 129
37.83, 128
37.84, 129
37.85, 111
37.86, 116
37.87, 125
37.88, 130
37.89, 103
37.9, 97
37.91, 99
37.92, 91
37.93, 81
37.94, 87
37.95, 71
37.96, 75
37.97, 78
37.98, 83
37.99, 93
38, 74
38.01, 69
38.02, 69
38.03, 81
38.04, 88
38.05, 69
38.06, 85
38.07, 78
38.08, 76
38.09, 97
38.1, 93
38.11, 79
38.12, 93
38.13, 74
38.14, 81
38.15, 79
38.16, 89
38.17, 100
38.18, 104
38.19, 102
38.2, 112
38.21, 96
38.22, 115
38.23, 105
38.24, 123
38.25, 137
38.26, 150
38.27, 129
38.28, 149
38.29, 173
38.3, 184
38.31, 207
38.32, 194
38.33, 206
38.34, 221
38.35, 248
38.36, 237
38.37, 262
38.38, 278
38.39, 302
38.4, 312
38.41, 339
38.42, 311
38.43, 372
38.44, 352
38.45, 330
38.46, 342
38.47, 363
38.48, 332
38.49, 372
38.5, 390
38.51, 411
38.52, 365
38.53, 386
38.54, 357
38.55, 366
38.56, 361
38.57, 353
38.58, 367
38.59, 351
38.6, 354
38.61, 335
38.62, 321
38.63, 293
38.64, 285
38.65, 249
38.66, 268
38.67, 240
38.68, 251
38.69, 221
38.7, 225
38.71, 200
38.72, 198
38.73, 187
38.74, 177
38.75, 159
38.76, 169
38.77, 147
38.78, 127
38.79, 132
38.8, 131
38.81, 122
38.82, 99
38.83, 129
38.84, 116
38.85, 131
38.86, 127
38.87, 101
38.88, 122
38.89, 110
38.9, 101
38.91, 103
38.92, 101
38.93, 89
38.94, 116
38.95, 111
38.96, 93
38.97, 115
38.98, 83
38.99, 97
39, 118
39.01, 103
39.02, 134
39.03, 101
39.04, 98
39.05, 118
39.06, 106
39.07, 116
39.08, 129
39.09, 114
39.1, 120
39.11, 117
39.12, 133
39.13, 148
39.14, 146
39.15, 164
39.16, 169
39.17, 140
39.18, 175
39.19, 180
39.2, 199
39.21, 218
39.22, 224
39.23, 230
39.24, 245
39.25, 255
39.26, 250
39.27, 279
39.28, 278
39.29, 337
39.3, 329
39.31, 319
39.32, 323
39.33, 313
39.34, 329
39.35, 311
39.36, 257
39.37, 304
39.38, 283
39.39, 261
39.4, 245
39.41, 250
39.42, 240
39.43, 219
39.44, 214
39.45, 198
39.46, 207
39.47, 179
39.48, 176
39.49, 170
39.5, 160
39.51, 132
39.52, 142
39.53, 141
39.54, 119
39.55, 119
39.56, 124
39.57, 111
39.58, 89
39.59, 89
39.6, 88
39.61, 111
39.62, 88
39.63, 85
39.64, 88
39.65, 86
39.66, 86
39.67, 70
39.68, 89
39.69, 60
39.7, 80
39.71, 69
39.72, 87
39.73, 69
39.74, 86
39.75, 79
39.76, 62
39.77, 93
39.78, 65
39.79, 68
39.8, 75
39.81, 73
39.82, 58
39.83, 80
39.84, 61
39.85, 64
39.86, 47
39.87, 62
39.88, 67
39.89, 81
39.9, 57
39.91, 52
39.92, 57
39.93, 57
39.94, 75
39.95, 76
39.96, 61
39.97, 67
39.98, 86
39.99, 65
40, 56
40.01, 55
40.02, 85
40.03, 63
40.04, 54
40.05, 60
40.06, 81
40.07, 67
40.08, 76
40.09, 69
40.1, 72
40.11, 86
40.12, 80
40.13, 75
40.14, 73
40.15, 82
40.16, 77
40.17, 74
40.18, 76
40.19, 60
40.2, 65
40.21, 79
40.22, 60
40.23, 66
40.24, 76
40.25, 83
40.26, 69
40.27, 87
40.28, 73
40.29, 58
40.3, 53
40.31, 63
40.32, 64
40.33, 72
40.34, 68
40.35, 65
40.36, 69
40.37, 73
40.38, 73
40.39, 60
40.4, 66
40.41, 66
40.42, 71
40.43, 57
40.44, 68
40.45, 64
40.46, 66
40.47, 77
40.48, 76
40.49, 81
40.5, 57
40.51, 61
40.52, 87
40.53, 65
40.54, 69
40.55, 71
40.56, 61
40.57, 74
40.58, 100
40.59, 75
40.6, 101
40.61, 83
40.62, 83
40.63, 80
40.64, 118
40.65, 121
40.66, 97
40.67, 108
40.68, 106
40.69, 100
40.7, 118
40.71, 90
40.72, 108
40.73, 99
40.74, 94
40.75, 102
40.76, 111
40.77, 97
40.78, 110
40.79, 94
40.8, 80
40.81, 84
40.82, 83
40.83, 68
40.84, 73
40.85, 74
40.86, 68
40.87, 87
40.88, 64
40.89, 99
40.9, 79
40.91, 64
40.92, 79
40.93, 72
40.94, 72
40.95, 77
40.96, 84
40.97, 77
40.98, 82
40.99, 77
41, 65
41.01, 79
41.02, 75
41.03, 82
41.04, 60
41.05, 78
41.06, 75
41.07, 81
41.08, 86
41.09, 87
41.1, 76
41.11, 92
41.12, 75
41.13, 80
41.14, 76
41.15, 75
41.16, 85
41.17, 73
41.18, 71
41.19, 77
41.2, 90
41.21, 56
41.22, 79
41.23, 68
41.24, 87
41.25, 79
41.26, 76
41.27, 75
41.28, 72
41.29, 88
41.3, 84
41.31, 81
41.32, 77
41.33, 68
41.34, 85
41.35, 81
41.36, 62
41.37, 80
41.38, 93
41.39, 73
41.4, 69
41.41, 73
41.42, 72
41.43, 72
41.44, 52
41.45, 74
41.46, 62
41.47, 61
41.48, 63
41.49, 67
41.5, 61
41.51, 67
41.52, 58
41.53, 57
41.54, 54
41.55, 55
41.56, 64
41.57, 44
41.58, 64
41.59, 53
41.6, 48
41.61, 49
41.62, 62
41.63, 64
41.64, 54
41.65, 58
41.66, 50
41.67, 59
41.68, 59
41.69, 58
41.7, 55
41.71, 46
41.72, 45
41.73, 41
41.74, 39
41.75, 59
41.76, 49
41.77, 53
41.78, 52
41.79, 52
41.8, 47
41.81, 43
41.82, 46
41.83, 58
41.84, 47
41.85, 45
41.86, 53
41.87, 41
41.88, 43
41.89, 58
41.9, 38
41.91, 59
41.92, 54
41.93, 40
41.94, 46
41.95, 48
41.96, 46
41.97, 52
41.98, 48
41.99, 46
42, 48
42.01, 51
42.02, 46
42.03, 45
42.04, 44
42.05, 46
42.06, 47
42.07, 44
42.08, 42
42.09, 42
42.1, 37
42.11, 58
42.12, 45
42.13, 53
42.14, 49
42.15, 43
42.16, 46
42.17, 64
42.18, 44
42.19, 44
42.2, 39
42.21, 47
42.22, 52
42.23, 43
42.24, 38
42.25, 48
42.26, 52
42.27, 49
42.28, 62
42.29, 59
42.3, 50
42.31, 38
42.32, 48
42.33, 45
42.34, 43
42.35, 53
42.36, 43
42.37, 58
42.38, 41
42.39, 50
42.4, 44
42.41, 46
42.42, 61
42.43, 45
42.44, 52
42.45, 51
42.46, 50
42.47, 38
42.48, 58
42.49, 56
42.5, 46
42.51, 48
42.52, 40
42.53, 51
42.54, 44
42.55, 44
42.56, 58
42.57, 45
42.58, 55
42.59, 58
42.6, 52
42.61, 39
42.62, 51
42.63, 44
42.64, 59
42.65, 47
42.66, 61
42.67, 59
42.68, 49
42.69, 39
42.7, 33
42.71, 45
42.72, 53
42.73, 55
42.74, 48
42.75, 47
42.76, 53
42.77, 42
42.78, 55
42.79, 44
42.8, 42
42.81, 46
42.82, 36
42.83, 49
42.84, 47
42.85, 23
42.86, 47
42.87, 46
42.88, 50
42.89, 29
42.9, 36
42.91, 50
42.92, 45
42.93, 40
42.94, 37
42.95, 47
42.96, 49
42.97, 30
42.98, 57
42.99, 41
43, 51
43.01, 39
43.02, 61
43.03, 46
43.04, 42
43.05, 41
43.06, 47
43.07, 44
43.08, 61
43.09, 50
43.1, 39
43.11, 46
43.12, 36
43.13, 38
43.14, 47
43.15, 48
43.16, 38
43.17, 34
43.18, 50
43.19, 47
43.2, 57
43.21, 44
43.22, 36
43.23, 27
43.24, 38
43.25, 60
43.26, 42
43.27, 47
43.28, 44
43.29, 44
43.3, 52
43.31, 40
43.32, 40
43.33, 40
43.34, 44
43.35, 53
43.36, 41
43.37, 38
43.38, 51
43.39, 40
43.4, 53
43.41, 41
43.42, 38
43.43, 46
43.44, 46
43.45, 38
43.46, 46
43.47, 36
43.48, 52
43.49, 50
43.5, 35
43.51, 51
43.52, 34
43.53, 49
43.54, 51
43.55, 39
43.56, 43
43.57, 56
43.58, 44
43.59, 58
43.6, 54
43.61, 36
43.62, 41
43.63, 46
43.64, 49
43.65, 53
43.66, 43
43.67, 45
43.68, 44
43.69, 43
43.7, 43
43.71, 37
43.72, 46
43.73, 49
43.74, 37
43.75, 40
43.76, 45
43.77, 45
43.78, 41
43.79, 45
43.8, 57
43.81, 49
43.82, 48
43.83, 52
43.84, 41
43.85, 52
43.86, 46
43.87, 42
43.88, 20
43.89, 48
43.9, 44
43.91, 49
43.92, 54
43.93, 48
43.94, 37
43.95, 47
43.96, 44
43.97, 38
43.98, 44
43.99, 44
44, 49
44.01, 48
44.02, 33
44.03, 51
44.04, 34
44.05, 44
44.06, 41
44.07, 48
44.08, 37
44.09, 46
44.1, 45
44.11, 27
44.12, 46
44.13, 47
44.14, 34
44.15, 55
44.16, 45
44.17, 46
44.18, 43
44.19, 38
44.2, 44
44.21, 39
44.22, 43
44.23, 37
44.24, 49
44.25, 42
44.26, 33
44.27, 48
44.28, 57
44.29, 49
44.3, 33
44.31, 44
44.32, 44
44.33, 32
44.34, 47
44.35, 44
44.36, 53
44.37, 46
44.38, 51
44.39, 44
44.4, 39
44.41, 55
44.42, 36
44.43, 55
44.44, 44
44.45, 53
44.46, 47
44.47, 42
44.48, 39
44.49, 45
44.5, 40
44.51, 40
44.52, 44
44.53, 41
44.54, 40
44.55, 38
44.56, 42
44.57, 40
44.58, 41
44.59, 56
44.6, 51
44.61, 44
44.62, 37
44.63, 40
44.64, 40
44.65, 28
44.66, 35
44.67, 45
44.68, 48
44.69, 50
44.7, 42
44.71, 57
44.72, 41
44.73, 53
44.74, 35
44.75, 47
44.76, 48
44.77, 32
44.78, 36
44.79, 42
44.8, 50
44.81, 66
44.82, 50
44.83, 54
44.84, 47
44.85, 38
44.86, 46
44.87, 37
44.88, 44
44.89, 41
44.9, 48
44.91, 27
44.92, 46
44.93, 43
44.94, 34
44.95, 43
44.96, 45
44.97, 52
44.98, 46
44.99, 38
45, 47
45.01, 45
45.02, 56
45.03, 62
45.04, 59
45.05, 44
45.06, 55
45.07, 41
45.08, 45
45.09, 43
45.1, 42
45.11, 49
45.12, 59
45.13, 47
45.14, 54
45.15, 45
45.16, 63
45.17, 54
45.18, 57
45.19, 50
45.2, 65
45.21, 49
45.22, 65
45.23, 73
45.24, 62
45.25, 72
45.26, 65
45.27, 65
45.28, 69
45.29, 78
45.3, 61
45.31, 69
45.32, 85
45.33, 96
45.34, 59
45.35, 95
45.36, 92
45.37, 100
45.38, 88
45.39, 97
45.4, 98
45.41, 106
45.42, 103
45.43, 102
45.44, 121
45.45, 109
45.46, 95
45.47, 120
45.48, 122
45.49, 125
45.5, 112
45.51, 98
45.52, 132
45.53, 119
45.54, 132
45.55, 141
45.56, 129
45.57, 111
45.58, 136
45.59, 121
45.6, 105
45.61, 127
45.62, 121
45.63, 121
45.64, 126
45.65, 122
45.66, 116
45.67, 117
45.68, 130
45.69, 109
45.7, 113
45.71, 113
45.72, 123
45.73, 95
45.74, 112
45.75, 107
45.76, 98
45.77, 114
45.78, 101
45.79, 96
45.8, 112
45.81, 103
45.82, 90
45.83, 86
45.84, 76
45.85, 83
45.86, 82
45.87, 82
45.88, 81
45.89, 72
45.9, 68
45.91, 73
45.92, 69
45.93, 62
45.94, 69
45.95, 78
45.96, 64
45.97, 60
45.98, 65
45.99, 51
46, 57
46.01, 65
46.02, 50
46.03, 64
46.04, 58
46.05, 52
46.06, 65
46.07, 47
46.08, 50
46.09, 59
46.1, 46
46.11, 40
46.12, 45
46.13, 45
46.14, 54
46.15, 50
46.16, 45
46.17, 57
46.18, 45
46.19, 46
46.2, 57
46.21, 43
46.22, 43
46.23, 49
46.24, 47
46.25, 57
46.26, 53
46.27, 49
46.28, 53
46.29, 54
46.3, 54
46.31, 50
46.32, 57
46.33, 45
46.34, 57
46.35, 46
46.36, 55
46.37, 47
46.38, 47
46.39, 52
46.4, 55
46.41, 59
46.42, 55
46.43, 67
46.44, 60
46.45, 64
46.46, 67
46.47, 60
46.48, 75
46.49, 62
46.5, 52
46.51, 55
46.52, 57
46.53, 65
46.54, 58
46.55, 68
46.56, 65
46.57, 64
46.58, 54
46.59, 71
46.6, 59
46.61, 74
46.62, 54
46.63, 63
46.64, 80
46.65, 62
46.66, 67
46.67, 64
46.68, 69
46.69, 71
46.7, 74
46.71, 77
46.72, 64
46.73, 66
46.74, 70
46.75, 73
46.76, 91
46.77, 73
46.78, 66
46.79, 75
46.8, 69
46.81, 89
46.82, 90
46.83, 82
46.84, 89
46.85, 75
46.86, 69
46.87, 74
46.88, 89
46.89, 96
46.9, 78
46.91, 79
46.92, 84
46.93, 73
46.94, 70
46.95, 90
46.96, 81
46.97, 70
46.98, 59
46.99, 65
47, 72
47.01, 59
47.02, 59
47.03, 68
47.04, 63
47.05, 53
47.06, 53
47.07, 49
47.08, 61
47.09, 68
47.1, 72
47.11, 69
47.12, 51
47.13, 51
47.14, 51
47.15, 63
47.16, 55
47.17, 51
47.18, 60
47.19, 72
47.2, 44
47.21, 62
47.22, 56
47.23, 77
47.24, 69
47.25, 53
47.26, 43
47.27, 60
47.28, 63
47.29, 65
47.3, 55
47.31, 68
47.32, 72
47.33, 47
47.34, 57
47.35, 59
47.36, 69
47.37, 58
47.38, 58
47.39, 55
47.4, 48
47.41, 60
47.42, 57
47.43, 62
47.44, 57
47.45, 62
47.46, 57
47.47, 66
47.48, 56
47.49, 68
47.5, 46
47.51, 52
47.52, 52
47.53, 53
47.54, 53
47.55, 47
47.56, 64
47.57, 59
47.58, 64
47.59, 66
47.6, 55
47.61, 71
47.62, 81
47.63, 59
47.64, 46
47.65, 54
47.66, 55
47.67, 61
47.68, 66
47.69, 74
47.7, 59
47.71, 64
47.72, 85
47.73, 76
47.74, 90
47.75, 72
47.76, 105
47.77, 74
47.78, 85
47.79, 95
47.8, 98
47.81, 108
47.82, 103
47.83, 107
47.84, 100
47.85, 95
47.86, 92
47.87, 96
47.88, 80
47.89, 100
47.9, 95
47.91, 103
47.92, 98
47.93, 111
47.94, 110
47.95, 114
47.96, 109
47.97, 99
47.98, 128
47.99, 105
48, 109
48.01, 113
48.02, 105
48.03, 121
48.04, 114
48.05, 98
48.06, 90
48.07, 82
48.08, 91
48.09, 102
48.1, 89
48.11, 106
48.12, 77
48.13, 88
48.14, 75
48.15, 70
48.16, 92
48.17, 87
48.18, 81
48.19, 68
48.2, 78
48.21, 50
48.22, 67
48.23, 67
48.24, 48
48.25, 55
48.26, 61
48.27, 55
48.28, 70
48.29, 45
48.3, 51
48.31, 49
48.32, 60
48.33, 57
48.34, 46
48.35, 66
48.36, 54
48.37, 54
48.38, 59
48.39, 50
48.4, 59
48.41, 51
48.42, 68
48.43, 54
48.44, 53
48.45, 58
48.46, 43
48.47, 45
48.48, 59
48.49, 50
48.5, 52
48.51, 45
48.52, 62
48.53, 59
48.54, 67
48.55, 49
48.56, 56
48.57, 62
48.58, 55
48.59, 54
48.6, 42
48.61, 51
48.62, 53
48.63, 47
48.64, 55
48.65, 62
48.66, 61
48.67, 54
48.68, 69
48.69, 55
48.7, 58
48.71, 60
48.72, 60
48.73, 56
48.74, 49
48.75, 43
48.76, 51
48.77, 60
48.78, 51
48.79, 58
48.8, 50
48.81, 51
48.82, 48
48.83, 56
48.84, 53
48.85, 62
48.86, 59
48.87, 60
48.88, 63
48.89, 41
48.9, 46
48.91, 45
48.92, 58
48.93, 52
48.94, 45
48.95, 37
48.96, 43
48.97, 49
48.98, 50
48.99, 52
49, 45
49.01, 55
49.02, 48
49.03, 55
49.04, 63
49.05, 49
49.06, 40
49.07, 50
49.08, 53
49.09, 65
49.1, 62
49.11, 53
49.12, 55
49.13, 56
49.14, 35
49.15, 51
49.16, 55
49.17, 62
49.18, 43
49.19, 43
49.2, 47
49.21, 51
49.22, 52
49.23, 48
49.24, 50
49.25, 49
49.26, 54
49.27, 58
49.28, 57
49.29, 55
49.3, 50
49.31, 81
49.32, 60
49.33, 48
49.34, 62
49.35, 67
49.36, 60
49.37, 60
49.38, 61
49.39, 73
49.4, 65
49.41, 57
49.42, 47
49.43, 73
49.44, 57
49.45, 61
49.46, 76
49.47, 83
49.48, 60
49.49, 72
49.5, 64
49.51, 75
49.52, 73
49.53, 72
49.54, 54
49.55, 75
49.56, 73
49.57, 63
49.58, 65
49.59, 60
49.6, 68
49.61, 75
49.62, 57
49.63, 72
49.64, 77
49.65, 69
49.66, 66
49.67, 65
49.68, 55
49.69, 73
49.7, 65
49.71, 61
49.72, 58
49.73, 64
49.74, 71
49.75, 60
49.76, 68
49.77, 45
49.78, 71
49.79, 68
49.8, 56
49.81, 63
49.82, 58
49.83, 39
49.84, 57
49.85, 58
49.86, 46
49.87, 61
49.88, 52
49.89, 42
49.9, 41
49.91, 44
49.92, 54
49.93, 44
49.94, 47
49.95, 44
49.96, 38
49.97, 36
49.98, 34
49.99, 49
50, 40
50.01, 41
50.02, 48
50.03, 40
50.04, 36
50.05, 37
50.06, 37
50.07, 43
50.08, 35
50.09, 37
50.1, 34
50.11, 35
50.12, 46
50.13, 45
50.14, 34
50.15, 50
50.16, 34
50.17, 35
50.18, 41
50.19, 35
50.2, 51
50.21, 35
50.22, 29
50.23, 46
50.24, 46
50.25, 35
50.26, 36
50.27, 45
50.28, 44
50.29, 50
50.3, 50
50.31, 41
50.32, 41
50.33, 51
50.34, 42
50.35, 36
50.36, 44
50.37, 55
50.38, 35
50.39, 26
50.4, 42
50.41, 46
50.42, 36
50.43, 45
50.44, 44
50.45, 46
50.46, 41
50.47, 36
50.48, 50
50.49, 48
50.5, 33
50.51, 42
50.52, 42
50.53, 44
50.54, 39
50.55, 33
50.56, 35
50.57, 36
50.58, 40
50.59, 35
50.6, 40
50.61, 36
50.62, 42
50.63, 37
50.64, 37
50.65, 33
50.66, 53
50.67, 40
50.68, 43
50.69, 40
50.7, 42
50.71, 36
50.72, 45
50.73, 46
50.74, 33
50.75, 45
50.76, 39
50.77, 42
50.78, 45
50.79, 32
50.8, 44
50.81, 40
50.82, 53
50.83, 53
50.84, 37
50.85, 34
50.86, 39
50.87, 44
50.88, 45
50.89, 47
50.9, 42
50.91, 55
50.92, 50
50.93, 55
50.94, 63
50.95, 51
50.96, 53
50.97, 59
50.98, 53
50.99, 60
51, 60
51.01, 56
51.02, 75
51.03, 62
51.04, 76
51.05, 66
51.06, 79
51.07, 69
51.08, 92
51.09, 80
51.1, 72
51.11, 69
51.12, 86
51.13, 72
51.14, 62
51.15, 64
51.16, 76
51.17, 64
51.18, 67
51.19, 71
51.2, 64
51.21, 83
51.22, 56
51.23, 61
51.24, 65
51.25, 71
51.26, 67
51.27, 46
51.28, 57
51.29, 54
51.3, 53
51.31, 58
51.32, 45
51.33, 48
51.34, 50
51.35, 39
51.36, 29
51.37, 38
51.38, 36
51.39, 29
51.4, 33
51.41, 37
51.42, 41
51.43, 50
51.44, 42
51.45, 34
51.46, 22
51.47, 36
51.48, 57
51.49, 44
51.5, 29
51.51, 29
51.52, 37
51.53, 32
51.54, 32
51.55, 32
51.56, 43
51.57, 28
51.58, 37
51.59, 34
51.6, 36
51.61, 27
51.62, 57
51.63, 26
51.64, 46
51.65, 38
51.66, 35
51.67, 23
51.68, 35
51.69, 36
51.7, 42
51.71, 33
51.72, 42
51.73, 40
51.74, 30
51.75, 40
51.76, 38
51.77, 38
51.78, 33
51.79, 41
51.8, 25
51.81, 47
51.82, 35
51.83, 35
51.84, 35
51.85, 35
51.86, 31
51.87, 38
51.88, 48
51.89, 33
51.9, 24
51.91, 28
51.92, 38
51.93, 35
51.94, 32
51.95, 47
51.96, 41
51.97, 33
51.98, 49
51.99, 37
52, 44
52.01, 35
52.02, 26
52.03, 49
52.04, 36
52.05, 34
52.06, 39
52.07, 42
52.08, 23
52.09, 50
52.1, 33
52.11, 48
52.12, 45
52.13, 43
52.14, 38
52.15, 40
52.16, 35
52.17, 37
52.18, 35
52.19, 39
52.2, 33
52.21, 44
52.22, 49
52.23, 48
52.24, 43
52.25, 37
52.26, 45
52.27, 46
52.28, 47
52.29, 44
52.3, 42
52.31, 39
52.32, 61
52.33, 50
52.34, 62
52.35, 64
52.36, 73
52.37, 60
52.38, 94
52.39, 92
52.4, 81
52.41, 96
52.42, 98
52.43, 106
52.44, 91
52.45, 100
52.46, 77
52.47, 87
52.48, 85
52.49, 62
52.5, 68
52.51, 71
52.52, 72
52.53, 64
52.54, 56
52.55, 64
52.56, 86
52.57, 61
52.58, 68
52.59, 64
52.6, 61
52.61, 55
52.62, 59
52.63, 45
52.64, 58
52.65, 43
52.66, 53
52.67, 39
52.68, 46
52.69, 32
52.7, 37
52.71, 25
52.72, 47
52.73, 35
52.74, 29
52.75, 29
52.76, 31
52.77, 33
52.78, 29
52.79, 36
52.8, 48
52.81, 48
52.82, 36
52.83, 46
52.84, 36
52.85, 34
52.86, 42
52.87, 39
52.88, 38
52.89, 45
52.9, 25
52.91, 36
52.92, 35
52.93, 27
52.94, 35
52.95, 35
52.96, 49
52.97, 36
52.98, 41
52.99, 34
53, 42
53.01, 28
53.02, 34
53.03, 24
53.04, 36
53.05, 20
53.06, 26
53.07, 34
53.08, 27
53.09, 35
53.1, 48
53.11, 44
53.12, 33
53.13, 39
53.14, 36
53.15, 34
53.16, 33
53.17, 47
53.18, 44
53.19, 28
53.2, 32
53.21, 39
53.22, 30
53.23, 31
53.24, 45
53.25, 41
53.26, 45
53.27, 42
53.28, 47
53.29, 33
53.3, 47
53.31, 34
53.32, 44
53.33, 35
53.34, 38
53.35, 49
53.36, 41
53.37, 47
53.38, 35
53.39, 39
53.4, 41
53.41, 43
53.42, 45
53.43, 42
53.44, 42
53.45, 46
53.46, 50
53.47, 41
53.48, 45
53.49, 30
53.5, 46
53.51, 41
53.52, 43
53.53, 51
53.54, 48
53.55, 38
53.56, 42
53.57, 32
53.58, 48
53.59, 52
53.6, 40
53.61, 37
53.62, 52
53.63, 36
53.64, 56
53.65, 45
53.66, 70
53.67, 48
53.68, 53
53.69, 38
53.7, 47
53.71, 39
53.72, 47
53.73, 37
53.74, 50
53.75, 47
53.76, 50
53.77, 54
53.78, 49
53.79, 32
53.8, 49
53.81, 51
53.82, 49
53.83, 38
53.84, 37
53.85, 41
53.86, 46
53.87, 56
53.88, 46
53.89, 44
53.9, 38
53.91, 51
53.92, 45
53.93, 39
53.94, 33
53.95, 32
53.96, 42
53.97, 47
53.98, 49
53.99, 33
54, 36
54.01, 38
54.02, 36
54.03, 39
54.04, 41
54.05, 44
54.06, 32
54.07, 38
54.08, 52
54.09, 38
54.1, 39
54.11, 30
54.12, 54
54.13, 46
54.14, 38
54.15, 37
54.16, 41
54.17, 59
54.18, 49
54.19, 44
54.2, 58
54.21, 46
54.22, 50
54.23, 53
54.24, 61
54.25, 74
54.26, 71
54.27, 50
54.28, 65
54.29, 49
54.3, 55
54.31, 60
54.32, 67
54.33, 69
54.34, 52
54.35, 63
54.36, 64
54.37, 78
54.38, 66
54.39, 81
54.4, 72
54.41, 73
54.42, 82
54.43, 67
54.44, 80
54.45, 89
54.46, 69
54.47, 63
54.48, 79
54.49, 70
54.5, 67
54.51, 75
54.52, 73
54.53, 65
54.54, 67
54.55, 80
54.56, 78
54.57, 86
54.58, 78
54.59, 71
54.6, 67
54.61, 89
54.62, 94
54.63, 97
54.64, 78
54.65, 79
54.66, 71
54.67, 74
54.68, 73
54.69, 77
54.7, 64
54.71, 76
54.72, 82
54.73, 89
54.74, 81
54.75, 67
54.76, 74
54.77, 80
54.78, 73
54.79, 72
54.8, 88
54.81, 98
54.82, 77
54.83, 71
54.84, 72
54.85, 100
54.86, 84
54.87, 96
54.88, 109
54.89, 93
54.9, 85
54.91, 91
54.92, 85
54.93, 109
54.94, 99
54.95, 102
54.96, 108
54.97, 98
54.98, 128
54.99, 134
55, 116
55.01, 120
55.02, 100
55.03, 114
55.04, 121
55.05, 116
55.06, 139
55.07, 135
55.08, 138
55.09, 132
55.1, 144
55.11, 140
55.12, 133
55.13, 147
55.14, 154
55.15, 132
55.16, 147
55.17, 137
55.18, 159
55.19, 133
55.2, 125
55.21, 139
55.22, 131
55.23, 114
55.24, 135
55.25, 143
55.26, 133
55.27, 152
55.28, 147
55.29, 148
55.3, 134
55.31, 122
55.32, 145
55.33, 127
55.34, 137
55.35, 138
55.36, 135
55.37, 162
55.38, 156
55.39, 145
55.4, 131
55.41, 130
55.42, 125
55.43, 123
55.44, 115
55.45, 124
55.46, 156
55.47, 116
55.48, 113
55.49, 131
55.5, 126
55.51, 106
55.52, 116
55.53, 112
55.54, 116
55.55, 100
55.56, 104
55.57, 104
55.58, 112
55.59, 114
55.6, 100
55.61, 110
55.62, 115
55.63, 101
55.64, 105
55.65, 87
55.66, 79
55.67, 88
55.68, 92
55.69, 102
55.7, 110
55.71, 103
55.72, 114
55.73, 79
55.74, 94
55.75, 102
55.76, 89
55.77, 89
55.78, 93
55.79, 92
55.8, 75
55.81, 89
55.82, 73
55.83, 83
55.84, 87
55.85, 77
55.86, 79
55.87, 74
55.88, 73
55.89, 55
55.9, 70
55.91, 77
55.92, 78
55.93, 82
55.94, 69
55.95, 69
55.96, 66
55.97, 67
55.98, 76
55.99, 69
56, 53
56.01, 52
56.02, 50
56.03, 61
56.04, 65
56.05, 71
56.06, 63
56.07, 63
56.08, 65
56.09, 60
56.1, 80
56.11, 51
56.12, 58
56.13, 58
56.14, 57
56.15, 60
56.16, 58
56.17, 61
56.18, 56
56.19, 65
56.2, 50
56.21, 75
56.22, 54
56.23, 62
56.24, 64
56.25, 72
56.26, 55
56.27, 65
56.28, 55
56.29, 47
56.3, 73
56.31, 63
56.32, 58
56.33, 57
56.34, 71
56.35, 74
56.36, 71
56.37, 55
56.38, 73
56.39, 65
56.4, 71
56.41, 63
56.42, 72
56.43, 59
56.44, 73
56.45, 68
56.46, 63
56.47, 61
56.48, 56
56.49, 65
56.5, 57
56.51, 74
56.52, 64
56.53, 75
56.54, 58
56.55, 75
56.56, 91
56.57, 91
56.58, 72
56.59, 66
56.6, 58
56.61, 74
56.62, 80
56.63, 77
56.64, 74
56.65, 81
56.66, 76
56.67, 70
56.68, 70
56.69, 91
56.7, 78
56.71, 79
56.72, 84
56.73, 99
56.74, 104
56.75, 109
56.76, 102
56.77, 95
56.78, 98
56.79, 108
56.8, 105
56.81, 91
56.82, 94
56.83, 113
56.84, 112
56.85, 125
56.86, 114
56.87, 108
56.88, 118
56.89, 90
56.9, 98
56.91, 93
56.92, 95
56.93, 107
56.94, 88
56.95, 80
56.96, 75
56.97, 79
56.98, 92
56.99, 87
57, 82
57.01, 78
57.02, 72
57.03, 76
57.04, 89
57.05, 93
57.06, 70
57.07, 67
57.08, 55
57.09, 78
57.1, 55
57.11, 57
57.12, 86
57.13, 67
57.14, 57
57.15, 65
57.16, 61
57.17, 50
57.18, 46
57.19, 44
57.2, 59
57.21, 69
57.22, 54
57.23, 51
57.24, 43
57.25, 33
57.26, 52
57.27, 47
57.28, 49
57.29, 49
57.3, 52
57.31, 56
57.32, 42
57.33, 55
57.34, 54
57.35, 68
57.36, 58
57.37, 40
57.38, 49
57.39, 39
57.4, 45
57.41, 37
57.42, 46
57.43, 36
57.44, 49
57.45, 46
57.46, 49
57.47, 56
57.48, 43
57.49, 49
57.5, 45
57.51, 41
57.52, 45
57.53, 45
57.54, 45
57.55, 39
57.56, 25
57.57, 44
57.58, 43
57.59, 37
57.6, 38
57.61, 34
57.62, 47
57.63, 47
57.64, 46
57.65, 38
57.66, 37
57.67, 39
57.68, 42
57.69, 35
57.7, 44
57.71, 39
57.72, 44
57.73, 41
57.74, 47
57.75, 39
57.76, 31
57.77, 46
57.78, 45
57.79, 41
57.8, 48
57.81, 47
57.82, 41
57.83, 40
57.84, 47
57.85, 41
57.86, 56
57.87, 35
57.88, 41
57.89, 37
57.9, 44
57.91, 47
57.92, 61
57.93, 39
57.94, 42
57.95, 39
57.96, 38
57.97, 40
57.98, 61
57.99, 58
58, 46
58.01, 53
58.02, 55
58.03, 50
58.04, 49
58.05, 49
58.06, 43
58.07, 48
58.08, 47
58.09, 68
58.1, 43
58.11, 54
58.12, 45
58.13, 48
58.14, 56
58.15, 74
58.16, 55
58.17, 57
58.18, 62
58.19, 59
58.2, 54
58.21, 71
58.22, 73
58.23, 64
58.24, 61
58.25, 73
58.26, 55
58.27, 66
58.28, 52
58.29, 69
58.3, 76
58.31, 52
58.32, 80
58.33, 66
58.34, 39
58.35, 60
58.36, 44
58.37, 44
58.38, 50
58.39, 51
58.4, 53
58.41, 55
58.42, 41
58.43, 54
58.44, 43
58.45, 51
58.46, 45
58.47, 40
58.48, 48
58.49, 40
58.5, 41
58.51, 41
58.52, 50
58.53, 42
58.54, 34
58.55, 41
58.56, 37
58.57, 39
58.58, 44
58.59, 33
58.6, 33
58.61, 44
58.62, 36
58.63, 44
58.64, 44
58.65, 52
58.66, 34
58.67, 33
58.68, 56
58.69, 45
58.7, 62
58.71, 36
58.72, 57
58.73, 49
58.74, 39
58.75, 41
58.76, 45
58.77, 46
58.78, 43
58.79, 56
58.8, 42
58.81, 39
58.82, 42
58.83, 43
58.84, 44
58.85, 45
58.86, 30
58.87, 53
58.88, 46
58.89, 37
58.9, 34
58.91, 38
58.92, 42
58.93, 39
58.94, 39
58.95, 38
58.96, 35
58.97, 32
58.98, 24
58.99, 55
59, 39
59.01, 25
59.02, 44
59.03, 38
59.04, 47
59.05, 40
59.06, 46
59.07, 39
59.08, 44
59.09, 52
59.1, 41
59.11, 44
59.12, 53
59.13, 38
59.14, 48
59.15, 44
59.16, 59
59.17, 36
59.18, 37
59.19, 40
59.2, 26
59.21, 37
59.22, 45
59.23, 38
59.24, 56
59.25, 50
59.26, 37
59.27, 43
59.28, 43
59.29, 42
59.3, 40
59.31, 46
59.32, 45
59.33, 51
59.34, 33
59.35, 45
59.36, 44
59.37, 39
59.38, 39
59.39, 55
59.4, 41
59.41, 52
59.42, 45
59.43, 41
59.44, 57
59.45, 62
59.46, 49
59.47, 49
59.48, 44
59.49, 55
59.5, 62
59.51, 47
59.52, 47
59.53, 64
59.54, 58
59.55, 62
59.56, 54
59.57, 67
59.58, 56
59.59, 58
59.6, 53
59.61, 55
59.62, 51
59.63, 54
59.64, 64
59.65, 70
59.66, 64
59.67, 61
59.68, 61
59.69, 47
59.7, 47
59.71, 51
59.72, 51
59.73, 68
59.74, 74
59.75, 42
59.76, 59
59.77, 62
59.78, 64
59.79, 67
59.8, 67
59.81, 58
59.82, 64
59.83, 73
59.84, 76
59.85, 76
59.86, 58
59.87, 88
59.88, 73
59.89, 73
59.9, 71
59.91, 52
59.92, 66
59.93, 80
59.94, 88
59.95, 78
59.96, 65
59.97, 54
59.98, 60
59.99, 86
60, 74
60.01, 66
60.02, 70
60.03, 52
60.04, 78
60.05, 74
60.06, 53
60.07, 67
60.08, 71
60.09, 72
60.1, 64
60.11, 68
60.12, 58
60.13, 65
60.14, 61
60.15, 65
60.16, 72
60.17, 65
60.18, 63
60.19, 54
60.2, 72
60.21, 63
60.22, 83
60.23, 46
60.24, 82
60.25, 59
60.26, 52
60.27, 63
60.28, 55
60.29, 70
60.3, 60
60.31, 58
60.32, 59
60.33, 57
60.34, 54
60.35, 56
60.36, 49
60.37, 51
60.38, 59
60.39, 51
60.4, 38
60.41, 44
60.42, 56
60.43, 58
60.44, 56
60.45, 43
60.46, 54
60.47, 45
60.48, 38
60.49, 40
60.5, 45
60.51, 46
60.52, 52
60.53, 37
60.54, 32
60.55, 45
60.56, 29
60.57, 40
60.58, 42
60.59, 29
60.6, 48
60.61, 34
60.62, 36
60.63, 46
60.64, 40
60.65, 40
60.66, 42
60.67, 49
60.68, 42
60.69, 42
60.7, 31
60.71, 47
60.72, 39
60.73, 40
60.74, 41
60.75, 42
60.76, 36
60.77, 36
60.78, 48
60.79, 37
60.8, 47
60.81, 37
60.82, 40
60.83, 48
60.84, 41
60.85, 35
60.86, 38
60.87, 23
60.88, 37
60.89, 37
60.9, 32
60.91, 34
60.92, 40
60.93, 33
60.94, 39
60.95, 47
60.96, 44
60.97, 40
60.98, 39
60.99, 48
61, 34
61.01, 39
61.02, 37
61.03, 34
61.04, 32
61.05, 31
61.06, 51
61.07, 37
61.08, 39
61.09, 50
61.1, 38
61.11, 43
61.12, 38
61.13, 35
61.14, 50
61.15, 34
61.16, 37
61.17, 29
61.18, 47
61.19, 44
61.2, 39
61.21, 25
61.22, 47
61.23, 22
61.24, 46
61.25, 33
61.26, 38
61.27, 40
61.28, 41
61.29, 34
61.3, 37
61.31, 38
61.32, 41
61.33, 45
61.34, 51
61.35, 39
61.36, 53
61.37, 41
61.38, 34
61.39, 41
61.4, 49
61.41, 41
61.42, 39
61.43, 43
61.44, 53
61.45, 40
61.46, 43
61.47, 44
61.48, 45
61.49, 44
61.5, 49
61.51, 38
61.52, 43
61.53, 36
61.54, 50
61.55, 54
61.56, 44
61.57, 45
61.58, 59
61.59, 54
61.6, 61
61.61, 51
61.62, 42
61.63, 53
61.64, 55
61.65, 51
61.66, 55
61.67, 48
61.68, 73
61.69, 44
61.7, 60
61.71, 62
61.72, 53
61.73, 69
61.74, 65
61.75, 60
61.76, 60
61.77, 59
61.78, 54
61.79, 48
61.8, 46
61.81, 61
61.82, 56
61.83, 54
61.84, 56
61.85, 52
61.86, 51
61.87, 56
61.88, 56
61.89, 63
61.9, 60
61.91, 53
61.92, 51
61.93, 42
61.94, 66
61.95, 48
61.96, 57
61.97, 60
61.98, 57
61.99, 70
62, 54
62.01, 67
62.02, 58
62.03, 49
62.04, 72
62.05, 63
62.06, 50
62.07, 63
62.08, 60
62.09, 69
62.1, 69
62.11, 72
62.12, 85
62.13, 73
62.14, 75
62.15, 86
62.16, 91
62.17, 112
62.18, 114
62.19, 97
62.2, 104
62.21, 132
62.22, 117
62.23, 148
62.24, 149
62.25, 172
62.26, 171
62.27, 182
62.28, 199
62.29, 218
62.3, 203
62.31, 238
62.32, 238
62.33, 245
62.34, 205
62.35, 226
62.36, 185
62.37, 211
62.38, 213
62.39, 212
62.4, 178
62.41, 205
62.42, 197
62.43, 173
62.44, 226
62.45, 206
62.46, 204
62.47, 226
62.48, 189
62.49, 207
62.5, 180
62.51, 182
62.52, 187
62.53, 183
62.54, 150
62.55, 146
62.56, 133
62.57, 132
62.58, 113
62.59, 119
62.6, 142
62.61, 115
62.62, 129
62.63, 105
62.64, 119
62.65, 93
62.66, 99
62.67, 85
62.68, 103
62.69, 100
62.7, 65
62.71, 80
62.72, 77
62.73, 72
62.74, 79
62.75, 70
62.76, 67
62.77, 76
62.78, 51
62.79, 69
62.8, 63
62.81, 64
62.82, 74
62.83, 46
62.84, 47
62.85, 60
62.86, 52
62.87, 48
62.88, 62
62.89, 43
62.9, 58
62.91, 43
62.92, 61
62.93, 51
62.94, 51
62.95, 56
62.96, 47
62.97, 55
62.98, 58
62.99, 54
63, 39
63.01, 55
63.02, 50
63.03, 54
63.04, 36
63.05, 51
63.06, 48
63.07, 45
63.08, 53
63.09, 49
63.1, 55
63.11, 51
63.12, 60
63.13, 43
63.14, 44
63.15, 54
63.16, 43
63.17, 48
63.18, 52
63.19, 46
63.2, 44
63.21, 42
63.22, 47
63.23, 56
63.24, 54
63.25, 48
63.26, 59
63.27, 49
63.28, 47
63.29, 60
63.3, 69
63.31, 62
63.32, 42
63.33, 53
63.34, 64
63.35, 58
63.36, 57
63.37, 55
63.38, 46
63.39, 53
63.4, 60
63.41, 63
63.42, 55
63.43, 52
63.44, 44
63.45, 56
63.46, 64
63.47, 63
63.48, 54
63.49, 79
63.5, 61
63.51, 56
63.52, 60
63.53, 49
63.54, 67
63.55, 72
63.56, 58
63.57, 60
63.58, 56
63.59, 58
63.6, 75
63.61, 54
63.62, 50
63.63, 54
63.64, 60
63.65, 75
63.66, 65
63.67, 77
63.68, 57
63.69, 60
63.7, 56
63.71, 56
63.72, 69
63.73, 56
63.74, 71
63.75, 66
63.76, 69
63.77, 71
63.78, 67
63.79, 57
63.8, 61
63.81, 72
63.82, 66
63.83, 56
63.84, 65
63.85, 64
63.86, 59
63.87, 62
63.88, 55
63.89, 59
63.9, 73
63.91, 61
63.92, 67
63.93, 54
63.94, 65
63.95, 62
63.96, 52
63.97, 67
63.98, 56
63.99, 59
64, 62
64.01, 81
64.02, 62
64.03, 64
64.04, 55
64.05, 60
64.06, 61
64.07, 62
64.08, 62
64.09, 55
64.1, 64
64.11, 64
64.12, 66
64.13, 71
64.14, 55
64.15, 68
64.16, 72
64.17, 60
64.18, 76
64.19, 57
64.2, 67
64.21, 58
64.22, 73
64.23, 67
64.24, 64
64.25, 76
64.26, 63
64.27, 50
64.28, 59
64.29, 57
64.3, 56
64.31, 63
64.32, 59
64.33, 66
64.34, 50
64.35, 55
64.36, 50
64.37, 58
64.38, 45
64.39, 44
64.4, 50
64.41, 58
64.42, 54
64.43, 53
64.44, 52
64.45, 55
64.46, 50
64.47, 66
64.48, 45
64.49, 65
64.5, 55
64.51, 61
64.52, 47
64.53, 47
64.54, 57
64.55, 49
64.56, 48
64.57, 52
64.58, 56
64.59, 57
64.6, 50
64.61, 40
64.62, 42
64.63, 50
64.64, 51
64.65, 43
64.66, 35
64.67, 40
64.68, 33
64.69, 42
64.7, 44
64.71, 37
64.72, 40
64.73, 49
64.74, 47
64.75, 45
64.76, 35
64.77, 30
64.78, 47
64.79, 41
64.8, 37
64.81, 41
64.82, 47
64.83, 32
64.84, 47
64.85, 35
64.86, 47
64.87, 32
64.88, 48
64.89, 38
64.9, 41
64.91, 37
64.92, 45
64.93, 27
64.94, 41
64.95, 36
64.96, 39
64.97, 36
64.98, 43
64.99, 43
65, 32
65.01, 41
65.02, 31
65.03, 50
65.04, 46
65.05, 49
65.06, 46
65.07, 33
65.08, 40
65.09, 43
65.1, 47
65.11, 49
65.12, 36
65.13, 49
65.14, 52
65.15, 48
65.16, 48
65.17, 46
65.18, 57
65.19, 39
65.2, 57
65.21, 45
65.22, 38
65.23, 45
65.24, 49
65.25, 58
65.26, 46
65.27, 49
65.28, 52
65.29, 41
65.3, 56
65.31, 46
65.32, 41
65.33, 46
65.34, 42
65.35, 45
65.36, 51
65.37, 52
65.38, 50
65.39, 42
65.4, 41
65.41, 33
65.42, 50
65.43, 47
65.44, 40
65.45, 42
65.46, 58
65.47, 35
65.48, 45
65.49, 32
65.5, 55
65.51, 41
65.52, 37
65.53, 44
65.54, 37
65.55, 50
65.56, 38
65.57, 34
65.58, 60
65.59, 35
65.6, 52
65.61, 34
65.62, 38
65.63, 43
65.64, 33
65.65, 42
65.66, 44
65.67, 27
65.68, 36
65.69, 39
65.7, 57
65.71, 31
65.72, 36
65.73, 36
65.74, 43
65.75, 34
65.76, 40
65.77, 40
65.78, 46
65.79, 38
65.8, 42
65.81, 43
65.82, 37
65.83, 35
65.84, 46
65.85, 32
65.86, 34
65.87, 53
65.88, 39
65.89, 38
65.9, 31
65.91, 42
65.92, 55
65.93, 46
65.94, 37
65.95, 38
65.96, 29
65.97, 41
65.98, 40
65.99, 45
66, 38
66.01, 34
66.02, 55
66.03, 45
66.04, 38
66.05, 45
66.06, 39
66.07, 36
66.08, 49
66.09, 37
66.1, 33
66.11, 36
66.12, 42
66.13, 42
66.14, 38
66.15, 36
66.16, 39
66.17, 27
66.18, 25
66.19, 48
66.2, 38
66.21, 42
66.22, 30
66.23, 30
66.24, 35
66.25, 33
66.26, 39
66.27, 34
66.28, 36
66.29, 32
66.3, 40
66.31, 40
66.32, 45
66.33, 51
66.34, 33
66.35, 42
66.36, 44
66.37, 44
66.38, 39
66.39, 40
66.4, 58
66.41, 40
66.42, 55
66.43, 34
66.44, 58
66.45, 43
66.46, 42
66.47, 46
66.48, 44
66.49, 50
66.5, 39
66.51, 48
66.52, 43
66.53, 49
66.54, 38
66.55, 51
66.56, 43
66.57, 38
66.58, 52
66.59, 58
66.6, 38
66.61, 37
66.62, 51
66.63, 41
66.64, 43
66.65, 46
66.66, 59
66.67, 56
66.68, 46
66.69, 53
66.7, 45
66.71, 46
66.72, 44
66.73, 43
66.74, 54
66.75, 33
66.76, 43
66.77, 42
66.78, 38
66.79, 33
66.8, 37
66.81, 37
66.82, 48
66.83, 22
66.84, 36
66.85, 45
66.86, 47
66.87, 35
66.88, 52
66.89, 47
66.9, 45
66.91, 52
66.92, 43
66.93, 46
66.94, 51
66.95, 46
66.96, 34
66.97, 39
66.98, 42
66.99, 39
67, 38
67.01, 58
67.02, 49
67.03, 38
67.04, 52
67.05, 48
67.06, 28
67.07, 49
67.08, 47
67.09, 52
67.1, 62
67.11, 65
67.12, 45
67.13, 58
67.14, 52
67.15, 44
67.16, 60
67.17, 62
67.18, 52
67.19, 44
67.2, 57
67.21, 52
67.22, 55
67.23, 54
67.24, 56
67.25, 52
67.26, 46
67.27, 43
67.28, 47
67.29, 51
67.3, 66
67.31, 58
67.32, 54
67.33, 58
67.34, 68
67.35, 50
67.36, 55
67.37, 56
67.38, 49
67.39, 54
67.4, 62
67.41, 61
67.42, 39
67.43, 37
67.44, 35
67.45, 56
67.46, 47
67.47, 60
67.48, 39
67.49, 50
67.5, 54
67.51, 41
67.52, 54
67.53, 54
67.54, 53
67.55, 57
67.56, 50
67.57, 51
67.58, 56
67.59, 59
67.6, 45
67.61, 40
67.62, 35
67.63, 53
67.64, 42
67.65, 49
67.66, 53
67.67, 42
67.68, 52
67.69, 54
67.7, 45
67.71, 52
67.72, 44
67.73, 45
67.74, 35
67.75, 45
67.76, 43
67.77, 39
67.78, 40
67.79, 40
67.8, 36
67.81, 46
67.82, 30
67.83, 45
67.84, 42
67.85, 46
67.86, 42
67.87, 50
67.88, 39
67.89, 44
67.9, 37
67.91, 43
67.92, 42
67.93, 53
67.94, 52
67.95, 55
67.96, 59
67.97, 49
67.98, 42
67.99, 54
68, 44
68.01, 53
68.02, 51
68.03, 36
68.04, 47
68.05, 58
68.06, 57
68.07, 50
68.08, 47
68.09, 66
68.1, 55
68.11, 55
68.12, 44
68.13, 62
68.14, 57
68.15, 53
68.16, 50
68.17, 41
68.18, 38
68.19, 42
68.2, 44
68.21, 48
68.22, 33
68.23, 45
68.24, 48
68.25, 36
68.26, 41
68.27, 45
68.28, 39
68.29, 63
68.3, 56
68.31, 49
68.32, 64
68.33, 52
68.34, 59
68.35, 54
68.36, 44
68.37, 51
68.38, 44
68.39, 42
68.4, 44
68.41, 40
68.42, 50
68.43, 46
68.44, 38
68.45, 56
68.46, 42
68.47, 54
68.48, 58
68.49, 60
68.5, 51
68.51, 56
68.52, 42
68.53, 49
68.54, 54
68.55, 57
68.56, 64
68.57, 44
68.58, 53
68.59, 46
68.6, 36
68.61, 63
68.62, 55
68.63, 47
68.64, 51
68.65, 52
68.66, 45
68.67, 40
68.68, 54
68.69, 54
68.7, 47
68.71, 50
68.72, 48
68.73, 51
68.74, 41
68.75, 51
68.76, 42
68.77, 33
68.78, 45
68.79, 44
68.8, 45
68.81, 45
68.82, 40
68.83, 46
68.84, 43
68.85, 34
68.86, 39
68.87, 40
68.88, 35
68.89, 30
68.9, 50
68.91, 41
68.92, 41
68.93, 37
68.94, 44
68.95, 47
68.96, 40
68.97, 33
68.98, 34
68.99, 48
69, 43
69.01, 45
69.02, 56
69.03, 32
69.04, 40
69.05, 37
69.06, 47
69.07, 40
69.08, 50
69.09, 38
69.1, 42
69.11, 55
69.12, 43
69.13, 40
69.14, 29
69.15, 46
69.16, 46
69.17, 50
69.18, 42
69.19, 42
69.2, 33
69.21, 48
69.22, 41
69.23, 29
69.24, 44
69.25, 55
69.26, 38
69.27, 43
69.28, 40
69.29, 51
69.3, 41
69.31, 31
69.32, 35
69.33, 50
69.34, 39
69.35, 43
69.36, 36
69.37, 29
69.38, 42
69.39, 39
69.4, 42
69.41, 37
69.42, 36
69.43, 51
69.44, 35
69.45, 44
69.46, 45
69.47, 30
69.48, 38
69.49, 39
69.5, 32
69.51, 37
69.52, 38
69.53, 46
69.54, 37
69.55, 26
69.56, 23
69.57, 37
69.58, 34
69.59, 40
69.6, 34
69.61, 45
69.62, 46
69.63, 45
69.64, 34
69.65, 45
69.66, 34
69.67, 44
69.68, 38
69.69, 35
69.7, 56
69.71, 42
69.72, 32
69.73, 40
69.74, 32
69.75, 37
69.76, 43
69.77, 44
69.78, 39
69.79, 30
69.8, 43
69.81, 38
69.82, 39
69.83, 47
69.84, 35
69.85, 31
69.86, 38
69.87, 37
69.88, 35
69.89, 49
69.9, 39
69.91, 33
69.92, 49
69.93, 32
69.94, 42
69.95, 28
69.96, 38
69.97, 45
69.98, 46
69.99, 33
70, 54
70.01, 47
70.02, 40
70.03, 43
70.04, 51
70.05, 47
70.06, 49
70.07, 44
70.08, 57
70.09, 53
70.1, 53
70.11, 70
70.12, 50
70.13, 55
70.14, 57
70.15, 60
70.16, 63
70.17, 54
70.18, 62
70.19, 70
70.2, 59
70.21, 61
70.22, 88
70.23, 57
70.24, 65
70.25, 52
70.26, 58
70.27, 63
70.28, 66
70.29, 65
70.3, 56
70.31, 67
70.32, 71
70.33, 68
70.34, 62
70.35, 59
70.36, 66
70.37, 54
70.38, 62
70.39, 58
70.4, 59
70.41, 54
70.42, 61
70.43, 51
70.44, 60
70.45, 67
70.46, 69
70.47, 41
70.48, 60
70.49, 58
70.5, 53
70.51, 50
70.52, 55
70.53, 47
70.54, 43
70.55, 47
70.56, 44
70.57, 60
70.58, 47
70.59, 43
70.6, 40
70.61, 38
70.62, 48
70.63, 43
70.64, 40
70.65, 36
70.66, 32
70.67, 38
70.68, 33
70.69, 35
70.7, 41
70.71, 40
70.72, 46
70.73, 44
70.74, 40
70.75, 44
70.76, 28
70.77, 45
70.78, 32
70.79, 40
70.8, 43
70.81, 34
70.82, 32
70.83, 39
70.84, 28
70.85, 36
70.86, 45
70.87, 27
70.88, 29
70.89, 36
70.9, 30
70.91, 35
70.92, 40
70.93, 46
70.94, 36
70.95, 36
70.96, 39
70.97, 41
70.98, 34
70.99, 30
71, 44
71.01, 32
71.02, 36
71.03, 36
71.04, 37
71.05, 49
71.06, 30
71.07, 40
71.08, 31
71.09, 30
71.1, 33
71.11, 36
71.12, 28
71.13, 24
71.14, 32
71.15, 37
71.16, 38
71.17, 32
71.18, 33
71.19, 30
71.2, 32
71.21, 29
71.22, 30
71.23, 34
71.24, 31
71.25, 36
71.26, 35
71.27, 39
71.28, 34
71.29, 33
71.3, 35
71.31, 35
71.32, 29
71.33, 34
71.34, 34
71.35, 34
71.36, 24
71.37, 36
71.38, 31
71.39, 41
71.4, 32
71.41, 42
71.42, 38
71.43, 41
71.44, 33
71.45, 35
71.46, 45
71.47, 34
71.48, 36
71.49, 30
71.5, 36
71.51, 25
71.52, 32
71.53, 34
71.54, 39
71.55, 44
71.56, 31
71.57, 37
71.58, 42
71.59, 40
71.6, 34
71.61, 41
71.62, 33
71.63, 31
71.64, 30
71.65, 37
71.66, 30
71.67, 36
71.68, 37
71.69, 40
71.7, 34
71.71, 41
71.72, 29
71.73, 32
71.74, 39
71.75, 41
71.76, 36
71.77, 34
71.78, 43
71.79, 51
71.8, 46
71.81, 33
71.82, 47
71.83, 34
71.84, 33
71.85, 42
71.86, 42
71.87, 40
71.88, 40
71.89, 51
71.9, 42
71.91, 50
71.92, 51
71.93, 48
71.94, 47
71.95, 45
71.96, 56
71.97, 48
71.98, 44
71.99, 40
72, 54
72.01, 50
72.02, 49
72.03, 63
72.04, 54
72.05, 58
72.06, 63
72.07, 54
72.08, 66
72.09, 53
72.1, 65
72.11, 62
72.12, 60
72.13, 53
72.14, 73
72.15, 58
72.16, 66
72.17, 73
72.18, 65
72.19, 57
72.2, 70
72.21, 72
72.22, 64
72.23, 61
72.24, 59
72.25, 64
72.26, 56
72.27, 72
72.28, 74
72.29, 71
72.3, 54
72.31, 72
72.32, 77
72.33, 57
72.34, 68
72.35, 79
72.36, 63
72.37, 74
72.38, 68
72.39, 58
72.4, 74
72.41, 53
72.42, 68
72.43, 78
72.44, 59
72.45, 70
72.46, 77
72.47, 67
72.48, 72
72.49, 78
72.5, 56
72.51, 69
72.52, 71
72.53, 72
72.54, 70
72.55, 76
72.56, 62
72.57, 69
72.58, 67
72.59, 74
72.6, 56
72.61, 81
72.62, 66
72.63, 68
72.64, 63
72.65, 61
72.66, 73
72.67, 64
72.68, 48
72.69, 56
72.7, 53
72.71, 60
72.72, 61
72.73, 36
72.74, 55
72.75, 64
72.76, 45
72.77, 46
72.78, 54
72.79, 44
72.8, 48
72.81, 49
72.82, 34
72.83, 45
72.84, 50
72.85, 41
72.86, 53
72.87, 58
72.88, 49
72.89, 49
72.9, 45
72.91, 46
72.92, 34
72.93, 39
72.94, 40
72.95, 33
72.96, 24
72.97, 30
72.98, 40
72.99, 38
73, 40
73.01, 34
73.02, 45
73.03, 34
73.04, 36
73.05, 43
73.06, 34
73.07, 35
73.08, 43
73.09, 41
73.1, 46
73.11, 42
73.12, 35
73.13, 57
73.14, 34
73.15, 42
73.16, 41
73.17, 47
73.18, 54
73.19, 57
73.2, 42
73.21, 49
73.22, 60
73.23, 48
73.24, 52
73.25, 54
73.26, 52
73.27, 49
73.28, 50
73.29, 57
73.3, 52
73.31, 55
73.32, 59
73.33, 61
73.34, 46
73.35, 42
73.36, 50
73.37, 53
73.38, 37
73.39, 47
73.4, 60
73.41, 50
73.42, 52
73.43, 44
73.44, 52
73.45, 65
73.46, 47
73.47, 55
73.48, 55
73.49, 59
73.5, 58
73.51, 65
73.52, 59
73.53, 36
73.54, 46
73.55, 60
73.56, 65
73.57, 68
73.58, 47
73.59, 56
73.6, 63
73.61, 70
73.62, 55
73.63, 74
73.64, 61
73.65, 71
73.66, 78
73.67, 66
73.68, 71
73.69, 70
73.7, 62
73.71, 62
73.72, 58
73.73, 84
73.74, 84
73.75, 79
73.76, 82
73.77, 75
73.78, 87
73.79, 71
73.8, 83
73.81, 60
73.82, 98
73.83, 87
73.84, 62
73.85, 77
73.86, 67
73.87, 87
73.88, 91
73.89, 72
73.9, 71
73.91, 67
73.92, 75
73.93, 82
73.94, 67
73.95, 73
73.96, 80
73.97, 67
73.98, 78
73.99, 58
74, 73
74.01, 74
74.02, 61
74.03, 76
74.04, 66
74.05, 59
74.06, 54
74.07, 66
74.08, 50
74.09, 51
74.1, 71
74.11, 53
74.12, 55
74.13, 49
74.14, 42
74.15, 41
74.16, 52
74.17, 45
74.18, 50
74.19, 52
74.2, 49
74.21, 52
74.22, 43
74.23, 57
74.24, 51
74.25, 49
74.26, 49
74.27, 47
74.28, 48
74.29, 37
74.3, 42
74.31, 48
74.32, 40
74.33, 43
74.34, 32
74.35, 41
74.36, 39
74.37, 38
74.38, 33
74.39, 39
74.4, 40
74.41, 32
74.42, 33
74.43, 42
74.44, 43
74.45, 48
74.46, 39
74.47, 39
74.48, 38
74.49, 40
74.5, 33
74.51, 38
74.52, 36
74.53, 40
74.54, 33
74.55, 21
74.56, 31
74.57, 36
74.58, 29
74.59, 41
74.6, 35
74.61, 30
74.62, 41
74.63, 41
74.64, 29
74.65, 53
74.66, 30
74.67, 46
74.68, 38
74.69, 32
74.7, 36
74.71, 44
74.72, 40
74.73, 34
74.74, 25
74.75, 30
74.76, 36
74.77, 53
74.78, 41
74.79, 36
74.8, 43
74.81, 35
74.82, 43
74.83, 35
74.84, 46
74.85, 48
74.86, 49
74.87, 47
74.88, 47
74.89, 48
74.9, 44
74.91, 43
74.92, 49
74.93, 49
74.94, 56
74.95, 64
74.96, 30
74.97, 58
74.98, 53
74.99, 47
75, 51
75.01, 47
75.02, 49
75.03, 44
75.04, 38
75.05, 46
75.06, 45
75.07, 39
75.08, 34
75.09, 37
75.1, 54
75.11, 40
75.12, 39
75.13, 48
75.14, 51
75.15, 53
75.16, 32
75.17, 40
75.18, 35
75.19, 48
75.2, 36
75.21, 51
75.22, 44
75.23, 43
75.24, 43
75.25, 43
75.26, 53
75.27, 49
75.28, 39
75.29, 35
75.3, 51
75.31, 44
75.32, 45
75.33, 34
75.34, 44
75.35, 43
75.36, 44
75.37, 42
75.38, 43
75.39, 46
75.4, 44
75.41, 44
75.42, 38
75.43, 48
75.44, 45
75.45, 42
75.46, 44
75.47, 31
75.48, 34
75.49, 37
75.5, 48
75.51, 45
75.52, 36
75.53, 38
75.54, 35
75.55, 29
75.56, 32
75.57, 40
75.58, 29
75.59, 32
75.6, 26
75.61, 43
75.62, 34
75.63, 30
75.64, 45
75.65, 30
75.66, 36
75.67, 35
75.68, 43
75.69, 34
75.7, 32
75.71, 31
75.72, 31
75.73, 37
75.74, 39
75.75, 32
75.76, 40
75.77, 38
75.78, 28
75.79, 49
75.8, 44
75.81, 36
75.82, 41
75.83, 34
75.84, 28
75.85, 43
75.86, 35
75.87, 47
75.88, 29
75.89, 38
75.9, 46
75.91, 39
75.92, 41
75.93, 30
75.94, 39
75.95, 40
75.96, 40
75.97, 41
75.98, 38
75.99, 47
76, 32
76.01, 42
76.02, 39
76.03, 35
76.04, 55
76.05, 51
76.06, 49
76.07, 47
76.08, 41
76.09, 52
76.1, 60
76.11, 43
76.12, 48
76.13, 49
76.14, 55
76.15, 49
76.16, 55
76.17, 42
76.18, 53
76.19, 48
76.2, 63
76.21, 60
76.22, 64
76.23, 49
76.24, 57
76.25, 66
76.26, 60
76.27, 71
76.28, 56
76.29, 55
76.3, 67
76.31, 49
76.32, 77
76.33, 47
76.34, 50
76.35, 61
76.36, 61
76.37, 59
76.38, 57
76.39, 55
76.4, 61
76.41, 73
76.42, 71
76.43, 59
76.44, 53
76.45, 56
76.46, 62
76.47, 57
76.48, 64
76.49, 61
76.5, 59
76.51, 64
76.52, 48
76.53, 56
76.54, 60
76.55, 47
76.56, 61
76.57, 60
76.58, 55
76.59, 56
76.6, 77
76.61, 50
76.62, 43
76.63, 55
76.64, 67
76.65, 72
76.66, 55
76.67, 51
76.68, 55
76.69, 68
76.7, 67
76.71, 50
76.72, 64
76.73, 50
76.74, 52
76.75, 50
76.76, 45
76.77, 54
76.78, 49
76.79, 48
76.8, 45
76.81, 55
76.82, 63
76.83, 53
76.84, 71
76.85, 63
76.86, 62
76.87, 49
76.88, 55
76.89, 57
76.9, 75
76.91, 67
76.92, 66
76.93, 61
76.94, 56
76.95, 56
76.96, 65
76.97, 54
76.98, 73
76.99, 73
77, 59
77.01, 61
77.02, 64
77.03, 67
77.04, 61
77.05, 92
77.06, 87
77.07, 86
77.08, 66
77.09, 76
77.1, 71
77.11, 59
77.12, 54
77.13, 60
77.14, 61
77.15, 63
77.16, 68
77.17, 61
77.18, 80
77.19, 65
77.2, 80
77.21, 54
77.22, 67
77.23, 72
77.24, 74
77.25, 74
77.26, 60
77.27, 63
77.28, 58
77.29, 72
77.3, 57
77.31, 60
77.32, 84
77.33, 69
77.34, 69
77.35, 59
77.36, 65
77.37, 59
77.38, 65
77.39, 52
77.4, 67
77.41, 59
77.42, 69
77.43, 47
77.44, 49
77.45, 58
77.46, 61
77.47, 42
77.48, 63
77.49, 63
77.5, 48
77.51, 65
77.52, 48
77.53, 48
77.54, 65
77.55, 65
77.56, 67
77.57, 65
77.58, 53
77.59, 56
77.6, 51
77.61, 56
77.62, 69
77.63, 49
77.64, 47
77.65, 49
77.66, 44
77.67, 44
77.68, 58
77.69, 54
77.7, 57
77.71, 59
77.72, 50
77.73, 45
77.74, 42
77.75, 51
77.76, 52
77.77, 52
77.78, 47
77.79, 41
77.8, 50
77.81, 36
77.82, 56
77.83, 44
77.84, 45
77.85, 38
77.86, 37
77.87, 37
77.88, 47
77.89, 41
77.9, 45
77.91, 43
77.92, 39
77.93, 41
77.94, 40
77.95, 40
77.96, 36
77.97, 53
77.98, 40
77.99, 42
78, 28
78.01, 41
78.02, 41
78.03, 51
78.04, 34
78.05, 28
78.06, 46
78.07, 46
78.08, 46
78.09, 49
78.1, 53
78.11, 43
78.12, 28
78.13, 36
78.14, 40
78.15, 36
78.16, 37
78.17, 46
78.18, 32
78.19, 37
78.2, 39
78.21, 30
78.22, 35
78.23, 41
78.24, 43
78.25, 42
78.26, 32
78.27, 47
78.28, 36
78.29, 29
78.3, 34
78.31, 36
78.32, 30
78.33, 40
78.34, 36
78.35, 46
78.36, 47
78.37, 43
78.38, 34
78.39, 29
78.4, 42
78.41, 35
78.42, 37
78.43, 40
78.44, 47
78.45, 43
78.46, 42
78.47, 45
78.48, 31
78.49, 38
78.5, 50
78.51, 29
78.52, 33
78.53, 32
78.54, 32
78.55, 45
78.56, 39
78.57, 41
78.58, 29
78.59, 31
78.6, 44
78.61, 27
78.62, 48
78.63, 41
78.64, 31
78.65, 27
78.66, 38
78.67, 33
78.68, 29
78.69, 30
78.7, 51
78.71, 38
78.72, 32
78.73, 40
78.74, 42
78.75, 34
78.76, 37
78.77, 45
78.78, 43
78.79, 36
78.8, 37
78.81, 25
78.82, 41
78.83, 38
78.84, 48
78.85, 46
78.86, 37
78.87, 37
78.88, 35
78.89, 33
78.9, 33
78.91, 44
78.92, 22
78.93, 42
78.94, 44
78.95, 45
78.96, 42
78.97, 48
78.98, 34
78.99, 41
79, 37
79.01, 38
79.02, 37
79.03, 51
79.04, 42
79.05, 47
79.06, 44
79.07, 32
79.08, 34
79.09, 47
79.1, 31
79.11, 38
79.12, 36
79.13, 37
79.14, 30
79.15, 37
79.16, 34
79.17, 37
79.18, 39
79.19, 42
79.2, 39
79.21, 41
79.22, 42
79.23, 46
79.24, 33
79.25, 40
79.26, 40
79.27, 33
79.28, 39
79.29, 49
79.3, 54
79.31, 48
79.32, 48
79.33, 41
79.34, 38
79.35, 35
79.36, 48
79.37, 51
79.38, 45
79.39, 40
79.4, 39
79.41, 38
79.42, 48
79.43, 45
79.44, 39
79.45, 52
79.46, 37
79.47, 40
79.48, 49
79.49, 33
79.5, 53
79.51, 49
79.52, 32
79.53, 27
79.54, 45
79.55, 38
79.56, 47
79.57, 50
79.58, 35
79.59, 43
79.6, 40
79.61, 38
79.62, 43
79.63, 37
79.64, 40
79.65, 39
79.66, 42
79.67, 43
79.68, 55
79.69, 51
79.7, 41
79.71, 49
79.72, 36
79.73, 39
79.74, 43
79.75, 42
79.76, 40
79.77, 60
79.78, 52
79.79, 42
79.8, 49
79.81, 48
79.82, 56
79.83, 48
79.84, 50
79.85, 50
79.86, 48
79.87, 50
79.88, 47
79.89, 53
79.9, 47
79.91, 52
79.92, 50
79.93, 41
79.94, 43
79.95, 53
79.96, 50
79.97, 49
79.98, 60
79.99, 44
80, 56
80.01, 48
80.02, 39
80.03, 45
80.04, 51
80.05, 56
80.06, 47
80.07, 53
80.08, 41
80.09, 46
80.1, 43
80.11, 43
80.12, 39
80.13, 54
80.14, 43
80.15, 51
80.16, 39
80.17, 46
80.18, 44
80.19, 30
80.2, 49
80.21, 43
80.22, 35
80.23, 37
80.24, 52
80.25, 45
80.26, 42
80.27, 46
80.28, 51
80.29, 46
80.3, 38
80.31, 60
80.32, 38
80.33, 43
80.34, 42
80.35, 34
80.36, 47
80.37, 43
80.38, 44
80.39, 41
80.4, 40
80.41, 42
80.42, 43
80.43, 38
80.44, 39
80.45, 40
80.46, 46
80.47, 38
80.48, 37
80.49, 28
80.5, 47
80.51, 37
80.52, 57
80.53, 39
80.54, 52
80.55, 34
80.56, 45
80.57, 46
80.58, 33
80.59, 29
80.6, 30
80.61, 48
80.62, 40
80.63, 43
80.64, 44
80.65, 37
80.66, 44
80.67, 31
80.68, 35
80.69, 38
80.7, 42
80.71, 32
80.72, 38
80.73, 37
80.74, 32
80.75, 38
80.76, 36
80.77, 36
80.78, 36
80.79, 41
80.8, 33
80.81, 26
80.82, 43
80.83, 28
80.84, 46
80.85, 30
80.86, 31
80.87, 40
80.88, 30
80.89, 44
80.9, 38
80.91, 31
80.92, 37
80.93, 46
80.94, 31
80.95, 35
80.96, 45
80.97, 30
80.98, 29
80.99, 30
81, 32
81.01, 32
81.02, 26
81.03, 25
81.04, 30
81.05, 32
81.06, 39
81.07, 33
81.08, 38
81.09, 36
81.1, 25
81.11, 35
81.12, 21
81.13, 35
81.14, 28
81.15, 39
81.16, 31
81.17, 30
81.18, 32
81.19, 38
81.2, 36
81.21, 39
81.22, 33
81.23, 26
81.24, 40
81.25, 38
81.26, 39
81.27, 41
81.28, 32
81.29, 24
81.3, 32
81.31, 43
81.32, 27
81.33, 36
81.34, 29
81.35, 30
81.36, 30
81.37, 41
81.38, 40
81.39, 38
81.4, 35
81.41, 38
81.42, 35
81.43, 33
81.44, 46
81.45, 38
81.46, 31
81.47, 29
81.48, 32
81.49, 31
81.5, 24
81.51, 27
81.52, 38
81.53, 23
81.54, 34
81.55, 30
81.56, 28
81.57, 33
81.58, 38
81.59, 33
81.6, 29
81.61, 26
81.62, 30
81.63, 31
81.64, 32
81.65, 24
81.66, 38
81.67, 29
81.68, 27
81.69, 47
81.7, 28
81.71, 32
81.72, 21
81.73, 38
81.74, 37
81.75, 28
81.76, 39
81.77, 41
81.78, 34
81.79, 26
81.8, 27
81.81, 32
81.82, 33
81.83, 35
81.84, 45
81.85, 33
81.86, 31
81.87, 34
81.88, 42
81.89, 29
81.9, 33
81.91, 38
81.92, 41
81.93, 35
81.94, 33
81.95, 42
81.96, 49
81.97, 34
81.98, 38
81.99, 38
82, 33
82.01, 35
82.02, 42
82.03, 33
82.04, 33
82.05, 28
82.06, 49
82.07, 25
82.08, 31
82.09, 29
82.1, 36
82.11, 27
82.12, 27
82.13, 39
82.14, 33
82.15, 34
82.16, 35
82.17, 41
82.18, 39
82.19, 43
82.2, 36
82.21, 37
82.22, 41
82.23, 36
82.24, 41
82.25, 32
82.26, 37
82.27, 27
82.28, 44
82.29, 38
82.3, 36
82.31, 29
82.32, 33
82.33, 26
82.34, 32
82.35, 30
82.36, 30
82.37, 30
82.38, 32
82.39, 32
82.4, 29
82.41, 33
82.42, 48
82.43, 34
82.44, 31
82.45, 37
82.46, 40
82.47, 31
82.48, 38
82.49, 31
82.5, 30
82.51, 31
82.52, 43
82.53, 31
82.54, 39
82.55, 36
82.56, 29
82.57, 31
82.58, 38
82.59, 41
82.6, 25
82.61, 32
82.62, 33
82.63, 35
82.64, 38
82.65, 42
82.66, 31
82.67, 33
82.68, 33
82.69, 30
82.7, 31
82.71, 33
82.72, 42
82.73, 42
82.74, 25
82.75, 24
82.76, 25
82.77, 27
82.78, 24
82.79, 29
82.8, 32
82.81, 39
82.82, 33
82.83, 32
82.84, 32
82.85, 37
82.86, 29
82.87, 41
82.88, 35
82.89, 41
82.9, 43
82.91, 39
82.92, 35
82.93, 34
82.94, 34
82.95, 33
82.96, 33
82.97, 50
82.98, 34
82.99, 38
83, 31
83.01, 37
83.02, 31
83.03, 37
83.04, 38
83.05, 30
83.06, 28
83.07, 51
83.08, 33
83.09, 37
83.1, 24
83.11, 35
83.12, 34
83.13, 36
83.14, 28
83.15, 26
83.16, 30
83.17, 30
83.18, 37
83.19, 27
83.2, 31
83.21, 36
83.22, 28
83.23, 30
83.24, 29
83.25, 30
83.26, 26
83.27, 34
83.28, 34
83.29, 31
83.3, 31
83.31, 27
83.32, 29
83.33, 29
83.34, 26
83.35, 29
83.36, 35
83.37, 28
83.38, 27
83.39, 31
83.4, 27
83.41, 26
83.42, 28
83.43, 24
83.44, 36
83.45, 36
83.46, 23
83.47, 34
83.48, 31
83.49, 23
83.5, 41
83.51, 33
83.52, 25
83.53, 24
83.54, 27
83.55, 18
83.56, 42
83.57, 35
83.58, 30
83.59, 36
83.6, 33
83.61, 22
83.62, 29
83.63, 29
83.64, 42
83.65, 40
83.66, 35
83.67, 32
83.68, 27
83.69, 23
83.7, 27
83.71, 29
83.72, 32
83.73, 23
83.74, 35
83.75, 34
83.76, 28
83.77, 15
83.78, 25
83.79, 36
83.8, 24
83.81, 29
83.82, 23
83.83, 39
83.84, 31
83.85, 23
83.86, 36
83.87, 20
83.88, 26
83.89, 30
83.9, 32
83.91, 33
83.92, 26
83.93, 32
83.94, 36
83.95, 30
83.96, 32
83.97, 33
83.98, 25
83.99, 33
84, 30
84.01, 37
84.02, 28
84.03, 21
84.04, 36
84.05, 25
84.06, 27
84.07, 31
84.08, 32
84.09, 29
84.1, 25
84.11, 38
84.12, 24
84.13, 28
84.14, 29
84.15, 27
84.16, 33
84.17, 39
84.18, 30
84.19, 28
84.2, 29
84.21, 30
84.22, 36
84.23, 29
84.24, 33
84.25, 37
84.26, 39
84.27, 34
84.28, 35
84.29, 27
84.3, 33
84.31, 21
84.32, 25
84.33, 24
84.34, 21
84.35, 29
84.36, 25
84.37, 27
84.38, 26
84.39, 34
84.4, 29
84.41, 33
84.42, 23
84.43, 32
84.44, 28
84.45, 24
84.46, 29
84.47, 32
84.48, 33
84.49, 28
84.5, 37
84.51, 41
84.52, 32
84.53, 44
84.54, 34
84.55, 28
84.56, 30
84.57, 33
84.58, 24
84.59, 24
84.6, 24
84.61, 26
84.62, 28
84.63, 29
84.64, 20
84.65, 31
84.66, 24
84.67, 34
84.68, 25
84.69, 39
84.7, 28
84.71, 27
84.72, 26
84.73, 40
84.74, 28
84.75, 27
84.76, 31
84.77, 27
84.78, 31
84.79, 25
84.8, 26
84.81, 28
84.82, 31
84.83, 30
84.84, 32
84.85, 29
84.86, 30
84.87, 34
84.88, 29
84.89, 33
84.9, 23
84.91, 30
84.92, 23
84.93, 40
84.94, 33
84.95, 24
84.96, 28
84.97, 39
84.98, 32
84.99, 30
85, 31
85.01, 40
85.02, 26
85.03, 27
85.04, 35
85.05, 29
85.06, 34
85.07, 38
85.08, 32
85.09, 39
85.1, 26
85.11, 45
85.12, 43
85.13, 35
85.14, 38
85.15, 30
85.16, 22
85.17, 32
85.18, 31
85.19, 29
85.2, 27
85.21, 26
85.22, 37
85.23, 35
85.24, 31
85.25, 32
85.26, 20
85.27, 43
85.28, 35
85.29, 39
85.3, 34
85.31, 34
85.32, 32
85.33, 38
85.34, 28
85.35, 41
85.36, 40
85.37, 32
85.38, 28
85.39, 25
85.4, 29
85.41, 38
85.42, 24
85.43, 27
85.44, 26
85.45, 31
85.46, 29
85.47, 25
85.48, 30
85.49, 31
85.5, 37
85.51, 29
85.52, 24
85.53, 25
85.54, 24
85.55, 33
85.56, 32
85.57, 25
85.58, 21
85.59, 23
85.6, 20
85.61, 16
85.62, 34
85.63, 38
85.64, 29
85.65, 39
85.66, 24
85.67, 33
85.68, 25
85.69, 27
85.7, 26
85.71, 23
85.72, 27
85.73, 30
85.74, 24
85.75, 30
85.76, 22
85.77, 29
85.78, 24
85.79, 27
85.8, 20
85.81, 24
85.82, 33
85.83, 27
85.84, 28
85.85, 27
85.86, 26
85.87, 33
85.88, 25
85.89, 22
85.9, 37
85.91, 26
85.92, 23
85.93, 34
85.94, 37
85.95, 25
85.96, 30
85.97, 32
85.98, 34
85.99, 41
86, 25
86.01, 26
86.02, 26
86.03, 33
86.04, 20
86.05, 29
86.06, 28
86.07, 40
86.08, 26
86.09, 26
86.1, 26
86.11, 26
86.12, 28
86.13, 32
86.14, 26
86.15, 41
86.16, 29
86.17, 43
86.18, 30
86.19, 23
86.2, 29
86.21, 32
86.22, 29
86.23, 37
86.24, 31
86.25, 27
86.26, 35
86.27, 43
86.28, 26
86.29, 35
86.3, 40
86.31, 39
86.32, 38
86.33, 28
86.34, 40
86.35, 29
86.36, 37
86.37, 37
86.38, 36
86.39, 23
86.4, 26
86.41, 41
86.42, 44
86.43, 31
86.44, 39
86.45, 29
86.46, 29
86.47, 44
86.48, 41
86.49, 31
86.5, 30
86.51, 28
86.52, 38
86.53, 39
86.54, 43
86.55, 30
86.56, 42
86.57, 32
86.58, 25
86.59, 44
86.6, 26
86.61, 36
86.62, 36
86.63, 41
86.64, 36
86.65, 35
86.66, 43
86.67, 37
86.68, 36
86.69, 34
86.7, 33
86.71, 27
86.72, 30
86.73, 40
86.74, 38
86.75, 39
86.76, 32
86.77, 28
86.78, 36
86.79, 30
86.8, 39
86.81, 21
86.82, 43
86.83, 27
86.84, 30
86.85, 29
86.86, 26
86.87, 28
86.88, 36
86.89, 41
86.9, 33
86.91, 39
86.92, 34
86.93, 42
86.94, 28
86.95, 33
86.96, 38
86.97, 30
86.98, 28
86.99, 28
87, 32
87.01, 42
87.02, 26
87.03, 27
87.04, 38
87.05, 33
87.06, 32
87.07, 28
87.08, 24
87.09, 36
87.1, 39
87.11, 34
87.12, 30
87.13, 31
87.14, 37
87.15, 25
87.16, 32
87.17, 28
87.18, 28
87.19, 33
87.2, 34
87.21, 27
87.22, 41
87.23, 18
87.24, 27
87.25, 35
87.26, 36
87.27, 28
87.28, 26
87.29, 24
87.3, 24
87.31, 29
87.32, 40
87.33, 36
87.34, 27
87.35, 36
87.36, 21
87.37, 30
87.38, 32
87.39, 36
87.4, 26
87.41, 25
87.42, 31
87.43, 34
87.44, 23
87.45, 32
87.46, 35
87.47, 28
87.48, 25
87.49, 37
87.5, 32
87.51, 35
87.52, 39
87.53, 27
87.54, 32
87.55, 34
87.56, 36
87.57, 31
87.58, 37
87.59, 37
87.6, 29
87.61, 32
87.62, 25
87.63, 37
87.64, 29
87.65, 34
87.66, 33
87.67, 29
87.68, 27
87.69, 41
87.7, 25
87.71, 32
87.72, 22
87.73, 25
87.74, 29
87.75, 23
87.76, 28
87.77, 33
87.78, 28
87.79, 27
87.8, 19
87.81, 34
87.82, 43
87.83, 23
87.84, 26
87.85, 25
87.86, 34
87.87, 31
87.88, 19
87.89, 28
87.9, 32
87.91, 26
87.92, 25
87.93, 32
87.94, 26
87.95, 32
87.96, 21
87.97, 36
87.98, 28
87.99, 32
88, 33
88.01, 28
88.02, 22
88.03, 20
88.04, 32
88.05, 28
88.06, 26
88.07, 32
88.08, 27
88.09, 38
88.1, 30
88.11, 33
88.12, 25
88.13, 32
88.14, 31
88.15, 27
88.16, 30
88.17, 25
88.18, 25
88.19, 23
88.2, 25
88.21, 25
88.22, 30
88.23, 25
88.24, 15
88.25, 32
88.26, 32
88.27, 25
88.28, 37
88.29, 24
88.3, 28
88.31, 20
88.32, 27
88.33, 27
88.34, 26
88.35, 26
88.36, 24
88.37, 27
88.38, 28
88.39, 33
88.4, 30
88.41, 30
88.42, 28
88.43, 29
88.44, 25
88.45, 23
88.46, 28
88.47, 28
88.48, 27
88.49, 24
88.5, 28
88.51, 27
88.52, 28
88.53, 31
88.54, 28
88.55, 35
88.56, 27
88.57, 23
88.58, 29
88.59, 32
88.6, 32
88.61, 31
88.62, 28
88.63, 25
88.64, 30
88.65, 27
88.66, 25
88.67, 31
88.68, 13
88.69, 27
88.7, 25
88.71, 26
88.72, 23
88.73, 28
88.74, 33
88.75, 44
88.76, 35
88.77, 28
88.78, 29
88.79, 28
88.8, 28
88.81, 41
88.82, 42
88.83, 18
88.84, 31
88.85, 35
88.86, 36
88.87, 40
88.88, 28
88.89, 32
88.9, 31
88.91, 31
88.92, 34
88.93, 26
88.94, 31
88.95, 36
88.96, 35
88.97, 26
88.98, 32
88.99, 35
89, 25
89.01, 28
89.02, 35
89.03, 36
89.04, 26
89.05, 29
89.06, 28
89.07, 21
89.08, 29
89.09, 39
89.1, 33
89.11, 25
89.12, 30
89.13, 27
89.14, 29
89.15, 30
89.16, 30
89.17, 39
89.18, 38
89.19, 33
89.2, 38
89.21, 45
89.22, 37
89.23, 29
89.24, 46
89.25, 41
89.26, 39
89.27, 34
89.28, 31
89.29, 36
89.3, 26
89.31, 46
89.32, 31
89.33, 36
89.34, 26
89.35, 37
89.36, 44
89.37, 29
89.38, 31
89.39, 41
89.4, 30
89.41, 32
89.42, 48
89.43, 32
89.44, 36
89.45, 34
89.46, 36
89.47, 34
89.48, 37
89.49, 27
89.5, 44
89.51, 41
89.52, 32
89.53, 42
89.54, 34
89.55, 18
89.56, 39
89.57, 40
89.58, 43
89.59, 35
89.6, 33
89.61, 25
89.62, 31
89.63, 32
89.64, 35
89.65, 39
89.66, 42
89.67, 30
89.68, 40
89.69, 35
89.7, 43
89.71, 28
89.72, 29
89.73, 30
89.74, 35
89.75, 38
89.76, 27
89.77, 41
89.78, 31
89.79, 41
89.8, 32
89.81, 44
89.82, 37
89.83, 35
89.84, 32
89.85, 28
89.86, 38
89.87, 32
89.88, 33
89.89, 29
89.9, 29
89.91, 32
89.92, 36
89.93, 29
89.94, 28
89.95, 29
89.96, 33
89.97, 30
89.98, 37
89.99, 33
90, 36
##END=



