##NAMES=Perovskite
##RRUFFID=R050456
##IDEAL CHEMISTRY=CaTiO_3_
##LOCALITY=Magnet Cove, Arkansas, USA
##OWNER=RRUFF
##SOURCE=University of Arizona Mineral Museum
##DESCRIPTION=Groups of black cubo-octahedral crystals
##STATUS=The identification of this mineral has been confirmed by X-ray diffraction and chemical analysis
##URL=https://www.rruff.net/odr/rruff_sample/R050456
##MEASURED CHEMISTRY=darker phase: (Ca_0.82_Fe^2+^_0.09_Na_0.07_Ce_0.01_La_0.01_)_Σ=1_(Ti_0.95_Nb^5+^_0.05_)_Σ=1_O_3_ ; gray phase: (Ca_0.89_Fe^2+^_0.05_Na_0.04_Ce_0.01_La_0.01_)_Σ=1_(Ti_0.98_Nb^5+^_0.02_)_Σ=1_O_3_
##DIFFRACTION SAMPLE DESCRIPTION=Powder
##CELL PARAMETERS=a: 5.398 b: 5.4637 c: 7.6711 alpha: 90 beta: 90 gamma: 90 volume: 226.24 crystal system: orthorhombic
##FILETYPE=RAW Powder Diffraction Profile

5, 25
5.01, 23
5.02, 17
5.03, 18
5.04, 21
5.05, 22
5.06, 24
5.07, 26
5.08, 20
5.09, 22
5.1, 29
5.11, 23
5.12, 12
5.13, 19
5.14, 29
5.15, 24
5.16, 19
5.17, 18
5.18, 15
5.19, 17
5.2, 20
5.21, 26
5.22, 17
5.23, 21
5.24, 30
5.25, 16
5.26, 24
5.27, 10
5.28, 22
5.29, 18
5.3, 19
5.31, 22
5.32, 18
5.33, 30
5.34, 12
5.35, 19
5.36, 17
5.37, 19
5.38, 24
5.39, 27
5.4, 25
5.41, 16
5.42, 25
5.43, 17
5.44, 19
5.45, 15
5.46, 13
5.47, 19
5.48, 20
5.49, 23
5.5, 28
5.51, 16
5.52, 24
5.53, 28
5.54, 15
5.55, 18
5.56, 17
5.57, 21
5.58, 24
5.59, 20
5.6, 23
5.61, 19
5.62, 29
5.63, 16
5.64, 17
5.65, 24
5.66, 19
5.67, 18
5.68, 22
5.69, 16
5.7, 16
5.71, 26
5.72, 21
5.73, 19
5.74, 14
5.75, 18
5.76, 26
5.77, 21
5.78, 25
5.79, 13
5.8, 20
5.81, 24
5.82, 15
5.83, 14
5.84, 17
5.85, 25
5.86, 19
5.87, 15
5.88, 20
5.89, 15
5.9, 18
5.91, 23
5.92, 16
5.93, 16
5.94, 14
5.95, 20
5.96, 18
5.97, 18
5.98, 25
5.99, 30
6, 23
6.01, 18
6.02, 14
6.03, 21
6.04, 20
6.05, 13
6.06, 13
6.07, 22
6.08, 23
6.09, 24
6.1, 15
6.11, 10
6.12, 22
6.13, 12
6.14, 19
6.15, 23
6.16, 22
6.17, 14
6.18, 10
6.19, 18
6.2, 17
6.21, 22
6.22, 15
6.23, 15
6.24, 18
6.25, 21
6.26, 16
6.27, 17
6.28, 11
6.29, 20
6.3, 20
6.31, 22
6.32, 15
6.33, 20
6.34, 23
6.35, 14
6.36, 16
6.37, 15
6.38, 31
6.39, 11
6.4, 17
6.41, 21
6.42, 20
6.43, 18
6.44, 15
6.45, 20
6.46, 21
6.47, 21
6.48, 26
6.49, 13
6.5, 13
6.51, 20
6.52, 23
6.53, 18
6.54, 12
6.55, 15
6.56, 21
6.57, 23
6.58, 22
6.59, 22
6.6, 20
6.61, 19
6.62, 21
6.63, 15
6.64, 14
6.65, 12
6.66, 25
6.67, 16
6.68, 25
6.69, 24
6.7, 16
6.71, 19
6.72, 23
6.73, 22
6.74, 19
6.75, 22
6.76, 15
6.77, 21
6.78, 33
6.79, 23
6.8, 28
6.81, 27
6.82, 25
6.83, 26
6.84, 16
6.85, 31
6.86, 18
6.87, 36
6.88, 23
6.89, 22
6.9, 31
6.91, 21
6.92, 24
6.93, 25
6.94, 33
6.95, 20
6.96, 30
6.97, 21
6.98, 25
6.99, 19
7, 23
7.01, 32
7.02, 28
7.03, 24
7.04, 22
7.05, 27
7.06, 27
7.07, 18
7.08, 24
7.09, 23
7.1, 18
7.11, 25
7.12, 24
7.13, 29
7.14, 25
7.15, 34
7.16, 19
7.17, 24
7.18, 26
7.19, 16
7.2, 16
7.21, 27
7.22, 25
7.23, 23
7.24, 32
7.25, 17
7.26, 19
7.27, 29
7.28, 28
7.29, 28
7.3, 18
7.31, 23
7.32, 29
7.33, 41
7.34, 25
7.35, 22
7.36, 20
7.37, 27
7.38, 24
7.39, 29
7.4, 28
7.41, 36
7.42, 25
7.43, 17
7.44, 25
7.45, 23
7.46, 26
7.47, 19
7.48, 35
7.49, 35
7.5, 28
7.51, 36
7.52, 26
7.53, 30
7.54, 20
7.55, 15
7.56, 28
7.57, 21
7.58, 22
7.59, 28
7.6, 23
7.61, 24
7.62, 29
7.63, 25
7.64, 25
7.65, 25
7.66, 27
7.67, 22
7.68, 28
7.69, 34
7.7, 23
7.71, 27
7.72, 17
7.73, 22
7.74, 25
7.75, 20
7.76, 26
7.77, 22
7.78, 16
7.79, 28
7.8, 25
7.81, 26
7.82, 20
7.83, 20
7.84, 25
7.85, 22
7.86, 23
7.87, 18
7.88, 21
7.89, 31
7.9, 17
7.91, 13
7.92, 17
7.93, 13
7.94, 20
7.95, 15
7.96, 13
7.97, 10
7.98, 12
7.99, 8
8, 17
8.01, 16
8.02, 18
8.03, 19
8.04, 19
8.05, 19
8.06, 12
8.07, 24
8.08, 19
8.09, 12
8.1, 15
8.11, 10
8.12, 15
8.13, 18
8.14, 17
8.15, 17
8.16, 15
8.17, 20
8.18, 18
8.19, 12
8.2, 14
8.21, 24
8.22, 14
8.23, 13
8.24, 21
8.25, 21
8.26, 8
8.27, 18
8.28, 14
8.29, 21
8.3, 19
8.31, 16
8.32, 12
8.33, 21
8.34, 17
8.35, 21
8.36, 10
8.37, 19
8.38, 16
8.39, 16
8.4, 20
8.41, 11
8.42, 11
8.43, 14
8.44, 15
8.45, 12
8.46, 15
8.47, 12
8.48, 10
8.49, 12
8.5, 22
8.51, 13
8.52, 19
8.53, 8
8.54, 15
8.55, 18
8.56, 19
8.57, 13
8.58, 12
8.59, 15
8.6, 18
8.61, 9
8.62, 10
8.63, 14
8.64, 11
8.65, 15
8.66, 14
8.67, 20
8.68, 16
8.69, 23
8.7, 14
8.71, 16
8.72, 15
8.73, 23
8.74, 12
8.75, 14
8.76, 16
8.77, 16
8.78, 17
8.79, 13
8.8, 17
8.81, 13
8.82, 17
8.83, 16
8.84, 13
8.85, 13
8.86, 15
8.87, 11
8.88, 21
8.89, 17
8.9, 18
8.91, 11
8.92, 18
8.93, 13
8.94, 10
8.95, 20
8.96, 18
8.97, 18
8.98, 11
8.99, 13
9, 22
9.01, 21
9.02, 16
9.03, 20
9.04, 21
9.05, 20
9.06, 11
9.07, 16
9.08, 15
9.09, 13
9.1, 10
9.11, 21
9.12, 8
9.13, 13
9.14, 26
9.15, 12
9.16, 21
9.17, 19
9.18, 18
9.19, 15
9.2, 19
9.21, 21
9.22, 20
9.23, 16
9.24, 16
9.25, 18
9.26, 13
9.27, 13
9.28, 23
9.29, 14
9.3, 14
9.31, 22
9.32, 16
9.33, 19
9.34, 13
9.35, 12
9.36, 16
9.37, 17
9.38, 14
9.39, 15
9.4, 18
9.41, 6
9.42, 12
9.43, 13
9.44, 16
9.45, 24
9.46, 21
9.47, 16
9.48, 19
9.49, 14
9.5, 10
9.51, 12
9.52, 18
9.53, 14
9.54, 14
9.55, 16
9.56, 19
9.57, 18
9.58, 12
9.59, 10
9.6, 10
9.61, 18
9.62, 11
9.63, 25
9.64, 13
9.65, 20
9.66, 14
9.67, 18
9.68, 17
9.69, 15
9.7, 15
9.71, 21
9.72, 11
9.73, 14
9.74, 7
9.75, 16
9.76, 20
9.77, 9
9.78, 20
9.79, 19
9.8, 12
9.81, 14
9.82, 20
9.83, 24
9.84, 18
9.85, 20
9.86, 13
9.87, 20
9.88, 10
9.89, 15
9.9, 16
9.91, 15
9.92, 19
9.93, 13
9.94, 14
9.95, 17
9.96, 21
9.97, 15
9.98, 16
9.99, 14
10, 21
10.01, 17
10.02, 14
10.03, 18
10.04, 24
10.05, 11
10.06, 15
10.07, 15
10.08, 16
10.09, 18
10.1, 19
10.11, 12
10.12, 22
10.13, 13
10.14, 15
10.15, 17
10.16, 22
10.17, 14
10.18, 14
10.19, 22
10.2, 11
10.21, 23
10.22, 15
10.23, 20
10.24, 18
10.25, 17
10.26, 16
10.27, 20
10.28, 17
10.29, 17
10.3, 15
10.31, 13
10.32, 21
10.33, 19
10.34, 32
10.35, 21
10.36, 12
10.37, 15
10.38, 19
10.39, 23
10.4, 24
10.41, 25
10.42, 15
10.43, 19
10.44, 20
10.45, 20
10.46, 21
10.47, 15
10.48, 19
10.49, 31
10.5, 14
10.51, 9
10.52, 14
10.53, 23
10.54, 21
10.55, 11
10.56, 13
10.57, 12
10.58, 21
10.59, 23
10.6, 31
10.61, 21
10.62, 17
10.63, 23
10.64, 22
10.65, 15
10.66, 15
10.67, 19
10.68, 13
10.69, 12
10.7, 10
10.71, 21
10.72, 22
10.73, 18
10.74, 14
10.75, 20
10.76, 16
10.77, 17
10.78, 14
10.79, 25
10.8, 20
10.81, 19
10.82, 16
10.83, 22
10.84, 19
10.85, 23
10.86, 22
10.87, 27
10.88, 21
10.89, 27
10.9, 18
10.91, 18
10.92, 13
10.93, 21
10.94, 11
10.95, 19
10.96, 21
10.97, 17
10.98, 14
10.99, 20
11, 15
11.01, 27
11.02, 24
11.03, 18
11.04, 13
11.05, 20
11.06, 11
11.07, 22
11.08, 12
11.09, 11
11.1, 18
11.11, 16
11.12, 15
11.13, 14
11.14, 14
11.15, 17
11.16, 17
11.17, 15
11.18, 13
11.19, 15
11.2, 20
11.21, 19
11.22, 16
11.23, 20
11.24, 11
11.25, 17
11.26, 16
11.27, 10
11.28, 17
11.29, 17
11.3, 20
11.31, 13
11.32, 23
11.33, 16
11.34, 13
11.35, 11
11.36, 18
11.37, 11
11.38, 14
11.39, 17
11.4, 20
11.41, 17
11.42, 15
11.43, 10
11.44, 17
11.45, 16
11.46, 13
11.47, 11
11.48, 13
11.49, 11
11.5, 11
11.51, 16
11.52, 11
11.53, 14
11.54, 17
11.55, 13
11.56, 9
11.57, 20
11.58, 16
11.59, 16
11.6, 18
11.61, 10
11.62, 16
11.63, 19
11.64, 14
11.65, 10
11.66, 18
11.67, 23
11.68, 15
11.69, 13
11.7, 14
11.71, 14
11.72, 19
11.73, 15
11.74, 16
11.75, 16
11.76, 18
11.77, 13
11.78, 15
11.79, 10
11.8, 16
11.81, 15
11.82, 24
11.83, 16
11.84, 9
11.85, 23
11.86, 15
11.87, 13
11.88, 13
11.89, 29
11.9, 11
11.91, 14
11.92, 13
11.93, 19
11.94, 21
11.95, 16
11.96, 13
11.97, 18
11.98, 13
11.99, 12
12, 24
12.01, 14
12.02, 11
12.03, 12
12.04, 14
12.05, 21
12.06, 21
12.07, 24
12.08, 22
12.09, 15
12.1, 17
12.11, 17
12.12, 15
12.13, 12
12.14, 11
12.15, 9
12.16, 25
12.17, 8
12.18, 9
12.19, 10
12.2, 14
12.21, 21
12.22, 15
12.23, 22
12.24, 15
12.25, 18
12.26, 9
12.27, 15
12.28, 14
12.29, 12
12.3, 8
12.31, 13
12.32, 16
12.33, 16
12.34, 13
12.35, 11
12.36, 11
12.37, 13
12.38, 17
12.39, 22
12.4, 14
12.41, 17
12.42, 14
12.43, 17
12.44, 19
12.45, 20
12.46, 11
12.47, 13
12.48, 13
12.49, 14
12.5, 23
12.51, 18
12.52, 18
12.53, 18
12.54, 24
12.55, 19
12.56, 23
12.57, 22
12.58, 21
12.59, 23
12.6, 17
12.61, 14
12.62, 25
12.63, 17
12.64, 20
12.65, 18
12.66, 11
12.67, 17
12.68, 13
12.69, 20
12.7, 18
12.71, 12
12.72, 15
12.73, 8
12.74, 12
12.75, 13
12.76, 17
12.77, 22
12.78, 22
12.79, 14
12.8, 13
12.81, 16
12.82, 20
12.83, 17
12.84, 11
12.85, 22
12.86, 12
12.87, 15
12.88, 11
12.89, 21
12.9, 18
12.91, 18
12.92, 13
12.93, 14
12.94, 19
12.95, 11
12.96, 15
12.97, 16
12.98, 12
12.99, 18
13, 18
13.01, 20
13.02, 23
13.03, 15
13.04, 14
13.05, 22
13.06, 21
13.07, 17
13.08, 19
13.09, 16
13.1, 15
13.11, 15
13.12, 16
13.13, 17
13.14, 15
13.15, 19
13.16, 9
13.17, 19
13.18, 21
13.19, 16
13.2, 18
13.21, 20
13.22, 15
13.23, 24
13.24, 19
13.25, 13
13.26, 14
13.27, 11
13.28, 14
13.29, 9
13.3, 18
13.31, 14
13.32, 11
13.33, 19
13.34, 15
13.35, 13
13.36, 14
13.37, 12
13.38, 17
13.39, 14
13.4, 22
13.41, 12
13.42, 22
13.43, 14
13.44, 13
13.45, 13
13.46, 17
13.47, 19
13.48, 12
13.49, 10
13.5, 19
13.51, 16
13.52, 14
13.53, 14
13.54, 17
13.55, 18
13.56, 10
13.57, 17
13.58, 11
13.59, 24
13.6, 16
13.61, 19
13.62, 14
13.63, 14
13.64, 7
13.65, 14
13.66, 14
13.67, 14
13.68, 12
13.69, 14
13.7, 19
13.71, 12
13.72, 13
13.73, 12
13.74, 17
13.75, 10
13.76, 8
13.77, 7
13.78, 10
13.79, 25
13.8, 20
13.81, 11
13.82, 12
13.83, 17
13.84, 13
13.85, 12
13.86, 13
13.87, 12
13.88, 12
13.89, 8
13.9, 6
13.91, 21
13.92, 16
13.93, 17
13.94, 17
13.95, 16
13.96, 15
13.97, 13
13.98, 22
13.99, 13
14, 19
14.01, 9
14.02, 13
14.03, 20
14.04, 12
14.05, 14
14.06, 14
14.07, 20
14.08, 9
14.09, 13
14.1, 15
14.11, 15
14.12, 12
14.13, 19
14.14, 17
14.15, 19
14.16, 18
14.17, 18
14.18, 15
14.19, 19
14.2, 16
14.21, 9
14.22, 15
14.23, 9
14.24, 11
14.25, 15
14.26, 8
14.27, 17
14.28, 13
14.29, 24
14.3, 9
14.31, 9
14.32, 12
14.33, 17
14.34, 15
14.35, 23
14.36, 12
14.37, 17
14.38, 19
14.39, 9
14.4, 18
14.41, 16
14.42, 14
14.43, 9
14.44, 16
14.45, 20
14.46, 12
14.47, 18
14.48, 17
14.49, 18
14.5, 18
14.51, 19
14.52, 11
14.53, 17
14.54, 14
14.55, 16
14.56, 15
14.57, 12
14.58, 20
14.59, 27
14.6, 15
14.61, 8
14.62, 10
14.63, 12
14.64, 15
14.65, 21
14.66, 19
14.67, 9
14.68, 12
14.69, 15
14.7, 17
14.71, 12
14.72, 11
14.73, 15
14.74, 15
14.75, 11
14.76, 14
14.77, 11
14.78, 16
14.79, 18
14.8, 19
14.81, 13
14.82, 24
14.83, 16
14.84, 16
14.85, 13
14.86, 10
14.87, 14
14.88, 10
14.89, 16
14.9, 10
14.91, 5
14.92, 7
14.93, 16
14.94, 13
14.95, 14
14.96, 14
14.97, 23
14.98, 14
14.99, 17
15, 19
15.01, 18
15.02, 16
15.03, 15
15.04, 8
15.05, 12
15.06, 16
15.07, 13
15.08, 10
15.09, 19
15.1, 11
15.11, 16
15.12, 12
15.13, 10
15.14, 16
15.15, 20
15.16, 18
15.17, 12
15.18, 14
15.19, 15
15.2, 17
15.21, 10
15.22, 17
15.23, 8
15.24, 16
15.25, 12
15.26, 19
15.27, 9
15.28, 14
15.29, 11
15.3, 13
15.31, 12
15.32, 10
15.33, 12
15.34, 18
15.35, 13
15.36, 19
15.37, 14
15.38, 14
15.39, 14
15.4, 14
15.41, 20
15.42, 21
15.43, 14
15.44, 11
15.45, 10
15.46, 21
15.47, 16
15.48, 15
15.49, 15
15.5, 18
15.51, 15
15.52, 13
15.53, 6
15.54, 17
15.55, 14
15.56, 9
15.57, 14
15.58, 15
15.59, 16
15.6, 15
15.61, 13
15.62, 15
15.63, 10
15.64, 18
15.65, 14
15.66, 13
15.67, 12
15.68, 17
15.69, 17
15.7, 10
15.71, 17
15.72, 12
15.73, 13
15.74, 14
15.75, 15
15.76, 16
15.77, 14
15.78, 15
15.79, 18
15.8, 21
15.81, 10
15.82, 13
15.83, 18
15.84, 14
15.85, 9
15.86, 19
15.87, 15
15.88, 28
15.89, 12
15.9, 12
15.91, 15
15.92, 15
15.93, 16
15.94, 10
15.95, 14
15.96, 16
15.97, 17
15.98, 14
15.99, 8
16, 15
16.01, 15
16.02, 9
16.03, 13
16.04, 19
16.05, 16
16.06, 21
16.07, 16
16.08, 18
16.09, 17
16.1, 10
16.11, 15
16.12, 11
16.13, 13
16.14, 16
16.15, 10
16.16, 17
16.17, 12
16.18, 19
16.19, 21
16.2, 11
16.21, 22
16.22, 15
16.23, 17
16.24, 18
16.25, 13
16.26, 6
16.27, 16
16.28, 9
16.29, 9
16.3, 8
16.31, 11
16.32, 14
16.33, 15
16.34, 10
16.35, 15
16.36, 14
16.37, 14
16.38, 16
16.39, 15
16.4, 10
16.41, 15
16.42, 15
16.43, 15
16.44, 9
16.45, 15
16.46, 16
16.47, 12
16.48, 7
16.49, 11
16.5, 14
16.51, 18
16.52, 10
16.53, 9
16.54, 14
16.55, 18
16.56, 15
16.57, 16
16.58, 14
16.59, 19
16.6, 13
16.61, 8
16.62, 14
16.63, 15
16.64, 11
16.65, 14
16.66, 11
16.67, 10
16.68, 17
16.69, 9
16.7, 11
16.71, 8
16.72, 9
16.73, 14
16.74, 16
16.75, 12
16.76, 11
16.77, 16
16.78, 16
16.79, 11
16.8, 13
16.81, 11
16.82, 17
16.83, 15
16.84, 16
16.85, 17
16.86, 16
16.87, 16
16.88, 20
16.89, 10
16.9, 9
16.91, 8
16.92, 12
16.93, 10
16.94, 12
16.95, 16
16.96, 17
16.97, 9
16.98, 11
16.99, 22
17, 17
17.01, 12
17.02, 12
17.03, 13
17.04, 10
17.05, 18
17.06, 15
17.07, 12
17.08, 11
17.09, 8
17.1, 8
17.11, 12
17.12, 17
17.13, 13
17.14, 9
17.15, 16
17.16, 13
17.17, 10
17.18, 14
17.19, 20
17.2, 7
17.21, 13
17.22, 22
17.23, 12
17.24, 9
17.25, 8
17.26, 16
17.27, 12
17.28, 11
17.29, 12
17.3, 16
17.31, 9
17.32, 12
17.33, 20
17.34, 16
17.35, 15
17.36, 11
17.37, 13
17.38, 20
17.39, 11
17.4, 13
17.41, 10
17.42, 12
17.43, 14
17.44, 13
17.45, 12
17.46, 9
17.47, 11
17.48, 5
17.49, 15
17.5, 16
17.51, 14
17.52, 13
17.53, 11
17.54, 13
17.55, 14
17.56, 9
17.57, 11
17.58, 15
17.59, 15
17.6, 13
17.61, 5
17.62, 5
17.63, 18
17.64, 12
17.65, 16
17.66, 6
17.67, 7
17.68, 13
17.69, 13
17.7, 16
17.71, 16
17.72, 13
17.73, 9
17.74, 13
17.75, 14
17.76, 13
17.77, 14
17.78, 12
17.79, 12
17.8, 12
17.81, 12
17.82, 17
17.83, 9
17.84, 22
17.85, 12
17.86, 17
17.87, 9
17.88, 12
17.89, 11
17.9, 13
17.91, 11
17.92, 14
17.93, 10
17.94, 8
17.95, 15
17.96, 13
17.97, 15
17.98, 21
17.99, 14
18, 10
18.01, 19
18.02, 12
18.03, 13
18.04, 18
18.05, 9
18.06, 10
18.07, 7
18.08, 11
18.09, 11
18.1, 11
18.11, 13
18.12, 15
18.13, 8
18.14, 10
18.15, 10
18.16, 13
18.17, 20
18.18, 13
18.19, 9
18.2, 14
18.21, 16
18.22, 8
18.23, 15
18.24, 10
18.25, 10
18.26, 17
18.27, 14
18.28, 13
18.29, 12
18.3, 12
18.31, 7
18.32, 12
18.33, 18
18.34, 18
18.35, 19
18.36, 13
18.37, 9
18.38, 14
18.39, 11
18.4, 18
18.41, 12
18.42, 16
18.43, 8
18.44, 10
18.45, 13
18.46, 17
18.47, 16
18.48, 14
18.49, 15
18.5, 10
18.51, 16
18.52, 19
18.53, 6
18.54, 14
18.55, 19
18.56, 15
18.57, 10
18.58, 9
18.59, 15
18.6, 10
18.61, 19
18.62, 11
18.63, 10
18.64, 14
18.65, 13
18.66, 14
18.67, 10
18.68, 14
18.69, 8
18.7, 10
18.71, 12
18.72, 8
18.73, 14
18.74, 12
18.75, 10
18.76, 14
18.77, 16
18.78, 11
18.79, 16
18.8, 8
18.81, 13
18.82, 8
18.83, 13
18.84, 9
18.85, 10
18.86, 14
18.87, 14
18.88, 13
18.89, 17
18.9, 6
18.91, 16
18.92, 15
18.93, 16
18.94, 15
18.95, 20
18.96, 10
18.97, 12
18.98, 13
18.99, 13
19, 18
19.01, 13
19.02, 17
19.03, 13
19.04, 12
19.05, 15
19.06, 19
19.07, 12
19.08, 10
19.09, 19
19.1, 8
19.11, 20
19.12, 12
19.13, 17
19.14, 18
19.15, 6
19.16, 9
19.17, 14
19.18, 9
19.19, 11
19.2, 17
19.21, 20
19.22, 13
19.23, 7
19.24, 16
19.25, 12
19.26, 13
19.27, 9
19.28, 11
19.29, 8
19.3, 14
19.31, 12
19.32, 18
19.33, 7
19.34, 9
19.35, 8
19.36, 8
19.37, 14
19.38, 14
19.39, 17
19.4, 16
19.41, 15
19.42, 8
19.43, 15
19.44, 15
19.45, 5
19.46, 13
19.47, 7
19.48, 11
19.49, 16
19.5, 10
19.51, 13
19.52, 16
19.53, 7
19.54, 12
19.55, 12
19.56, 10
19.57, 15
19.58, 11
19.59, 12
19.6, 11
19.61, 13
19.62, 15
19.63, 13
19.64, 13
19.65, 10
19.66, 10
19.67, 15
19.68, 19
19.69, 8
19.7, 10
19.71, 9
19.72, 13
19.73, 5
19.74, 15
19.75, 8
19.76, 12
19.77, 16
19.78, 19
19.79, 5
19.8, 15
19.81, 9
19.82, 11
19.83, 14
19.84, 13
19.85, 12
19.86, 16
19.87, 16
19.88, 21
19.89, 12
19.9, 14
19.91, 9
19.92, 14
19.93, 18
19.94, 12
19.95, 13
19.96, 6
19.97, 12
19.98, 9
19.99, 11
20, 12
20.01, 12
20.02, 14
20.03, 12
20.04, 13
20.05, 18
20.06, 13
20.07, 7
20.08, 14
20.09, 13
20.1, 12
20.11, 15
20.12, 12
20.13, 17
20.14, 15
20.15, 21
20.16, 10
20.17, 17
20.18, 16
20.19, 5
20.2, 17
20.21, 9
20.22, 9
20.23, 18
20.24, 10
20.25, 16
20.26, 17
20.27, 6
20.28, 5
20.29, 8
20.3, 15
20.31, 16
20.32, 11
20.33, 17
20.34, 15
20.35, 8
20.36, 13
20.37, 16
20.38, 13
20.39, 8
20.4, 6
20.41, 18
20.42, 15
20.43, 12
20.44, 19
20.45, 17
20.46, 10
20.47, 15
20.48, 19
20.49, 8
20.5, 8
20.51, 12
20.52, 6
20.53, 7
20.54, 13
20.55, 11
20.56, 13
20.57, 11
20.58, 12
20.59, 14
20.6, 11
20.61, 9
20.62, 9
20.63, 9
20.64, 8
20.65, 8
20.66, 11
20.67, 11
20.68, 11
20.69, 11
20.7, 14
20.71, 8
20.72, 12
20.73, 7
20.74, 16
20.75, 10
20.76, 11
20.77, 13
20.78, 10
20.79, 10
20.8, 9
20.81, 13
20.82, 14
20.83, 12
20.84, 16
20.85, 17
20.86, 17
20.87, 12
20.88, 11
20.89, 11
20.9, 14
20.91, 12
20.92, 12
20.93, 10
20.94, 10
20.95, 18
20.96, 8
20.97, 17
20.98, 15
20.99, 13
21, 17
21.01, 15
21.02, 23
21.03, 11
21.04, 15
21.05, 11
21.06, 13
21.07, 9
21.08, 13
21.09, 10
21.1, 12
21.11, 18
21.12, 14
21.13, 12
21.14, 12
21.15, 11
21.16, 11
21.17, 12
21.18, 14
21.19, 11
21.2, 14
21.21, 15
21.22, 15
21.23, 6
21.24, 14
21.25, 11
21.26, 17
21.27, 11
21.28, 11
21.29, 10
21.3, 15
21.31, 14
21.32, 16
21.33, 10
21.34, 13
21.35, 13
21.36, 19
21.37, 10
21.38, 14
21.39, 12
21.4, 21
21.41, 11
21.42, 8
21.43, 8
21.44, 15
21.45, 13
21.46, 13
21.47, 16
21.48, 15
21.49, 7
21.5, 16
21.51, 17
21.52, 11
21.53, 10
21.54, 12
21.55, 1
21.56, 11
21.57, 8
21.58, 6
21.59, 9
21.6, 7
21.61, 10
21.62, 14
21.63, 11
21.64, 3
21.65, 9
21.66, 15
21.67, 16
21.68, 15
21.69, 12
21.7, 14
21.71, 17
21.72, 12
21.73, 12
21.74, 13
21.75, 22
21.76, 10
21.77, 14
21.78, 11
21.79, 10
21.8, 13
21.81, 17
21.82, 20
21.83, 12
21.84, 8
21.85, 9
21.86, 15
21.87, 14
21.88, 19
21.89, 12
21.9, 9
21.91, 14
21.92, 16
21.93, 8
21.94, 9
21.95, 12
21.96, 13
21.97, 15
21.98, 12
21.99, 14
22, 9
22.01, 9
22.02, 13
22.03, 18
22.04, 11
22.05, 9
22.06, 10
22.07, 16
22.08, 13
22.09, 12
22.1, 9
22.11, 8
22.12, 17
22.13, 9
22.14, 19
22.15, 11
22.16, 14
22.17, 18
22.18, 8
22.19, 14
22.2, 6
22.21, 16
22.22, 12
22.23, 16
22.24, 14
22.25, 11
22.26, 14
22.27, 13
22.28, 15
22.29, 14
22.3, 13
22.31, 14
22.32, 11
22.33, 12
22.34, 7
22.35, 18
22.36, 9
22.37, 15
22.38, 8
22.39, 12
22.4, 15
22.41, 9
22.42, 16
22.43, 16
22.44, 7
22.45, 20
22.46, 16
22.47, 9
22.48, 12
22.49, 12
22.5, 10
22.51, 21
22.52, 16
22.53, 12
22.54, 15
22.55, 16
22.56, 22
22.57, 14
22.58, 14
22.59, 13
22.6, 11
22.61, 11
22.62, 10
22.63, 11
22.64, 9
22.65, 13
22.66, 14
22.67, 8
22.68, 17
22.69, 13
22.7, 13
22.71, 10
22.72, 11
22.73, 12
22.74, 16
22.75, 17
22.76, 11
22.77, 19
22.78, 17
22.79, 8
22.8, 13
22.81, 17
22.82, 17
22.83, 9
22.84, 9
22.85, 8
22.86, 18
22.87, 20
22.88, 16
22.89, 10
22.9, 5
22.91, 14
22.92, 24
22.93, 13
22.94, 14
22.95, 8
22.96, 17
22.97, 8
22.98, 19
22.99, 15
23, 14
23.01, 15
23.02, 13
23.03, 21
23.04, 31
23.05, 16
23.06, 24
23.07, 32
23.08, 32
23.09, 48
23.1, 41
23.11, 63
23.12, 75
23.13, 106
23.14, 123
23.15, 93
23.16, 104
23.17, 93
23.18, 97
23.19, 74
23.2, 74
23.21, 70
23.22, 64
23.23, 60
23.24, 37
23.25, 30
23.26, 27
23.27, 26
23.28, 27
23.29, 25
23.3, 17
23.31, 29
23.32, 15
23.33, 11
23.34, 20
23.35, 16
23.36, 18
23.37, 16
23.38, 20
23.39, 14
23.4, 18
23.41, 14
23.42, 13
23.43, 15
23.44, 20
23.45, 12
23.46, 12
23.47, 8
23.48, 14
23.49, 17
23.5, 7
23.51, 12
23.52, 15
23.53, 13
23.54, 15
23.55, 16
23.56, 9
23.57, 14
23.58, 18
23.59, 8
23.6, 9
23.61, 10
23.62, 11
23.63, 4
23.64, 14
23.65, 16
23.66, 14
23.67, 7
23.68, 14
23.69, 6
23.7, 15
23.71, 17
23.72, 9
23.73, 9
23.74, 12
23.75, 15
23.76, 10
23.77, 6
23.78, 12
23.79, 11
23.8, 10
23.81, 8
23.82, 10
23.83, 14
23.84, 10
23.85, 18
23.86, 10
23.87, 18
23.88, 13
23.89, 22
23.9, 17
23.91, 12
23.92, 15
23.93, 13
23.94, 5
23.95, 14
23.96, 14
23.97, 6
23.98, 23
23.99, 12
24, 14
24.01, 12
24.02, 12
24.03, 15
24.04, 7
24.05, 8
24.06, 9
24.07, 7
24.08, 12
24.09, 17
24.1, 8
24.11, 14
24.12, 14
24.13, 7
24.14, 7
24.15, 11
24.16, 10
24.17, 15
24.18, 17
24.19, 15
24.2, 15
24.21, 15
24.22, 7
24.23, 9
24.24, 17
24.25, 15
24.26, 16
24.27, 11
24.28, 13
24.29, 9
24.3, 16
24.31, 15
24.32, 11
24.33, 11
24.34, 10
24.35, 6
24.36, 8
24.37, 9
24.38, 13
24.39, 10
24.4, 18
24.41, 10
24.42, 8
24.43, 15
24.44, 10
24.45, 12
24.46, 11
24.47, 10
24.48, 13
24.49, 13
24.5, 16
24.51, 10
24.52, 11
24.53, 20
24.54, 20
24.55, 16
24.56, 18
24.57, 16
24.58, 12
24.59, 7
24.6, 12
24.61, 14
24.62, 18
24.63, 16
24.64, 12
24.65, 15
24.66, 11
24.67, 11
24.68, 14
24.69, 9
24.7, 13
24.71, 13
24.72, 12
24.73, 13
24.74, 8
24.75, 9
24.76, 15
24.77, 11
24.78, 12
24.79, 15
24.8, 15
24.81, 13
24.82, 8
24.83, 12
24.84, 10
24.85, 9
24.86, 11
24.87, 16
24.88, 10
24.89, 12
24.9, 10
24.91, 8
24.92, 9
24.93, 13
24.94, 11
24.95, 14
24.96, 15
24.97, 13
24.98, 14
24.99, 9
25, 10
25.01, 10
25.02, 6
25.03, 8
25.04, 5
25.05, 8
25.06, 9
25.07, 13
25.08, 12
25.09, 16
25.1, 13
25.11, 13
25.12, 6
25.13, 15
25.14, 12
25.15, 8
25.16, 12
25.17, 14
25.18, 12
25.19, 10
25.2, 21
25.21, 14
25.22, 15
25.23, 13
25.24, 10
25.25, 10
25.26, 12
25.27, 13
25.28, 18
25.29, 18
25.3, 11
25.31, 11
25.32, 14
25.33, 15
25.34, 17
25.35, 17
25.36, 12
25.37, 18
25.38, 17
25.39, 8
25.4, 12
25.41, 10
25.42, 15
25.43, 14
25.44, 11
25.45, 16
25.46, 15
25.47, 14
25.48, 10
25.49, 6
25.5, 9
25.51, 5
25.52, 8
25.53, 8
25.54, 15
25.55, 11
25.56, 15
25.57, 12
25.58, 10
25.59, 11
25.6, 16
25.61, 8
25.62, 13
25.63, 14
25.64, 16
25.65, 10
25.66, 19
25.67, 14
25.68, 11
25.69, 11
25.7, 17
25.71, 16
25.72, 12
25.73, 14
25.74, 11
25.75, 15
25.76, 12
25.77, 11
25.78, 13
25.79, 20
25.8, 15
25.81, 23
25.82, 32
25.83, 33
25.84, 56
25.85, 70
25.86, 68
25.87, 45
25.88, 35
25.89, 46
25.9, 46
25.91, 62
25.92, 72
25.93, 50
25.94, 39
25.95, 34
25.96, 31
25.97, 29
25.98, 26
25.99, 28
26, 22
26.01, 26
26.02, 18
26.03, 20
26.04, 16
26.05, 20
26.06, 17
26.07, 12
26.08, 15
26.09, 20
26.1, 17
26.11, 11
26.12, 11
26.13, 15
26.14, 12
26.15, 13
26.16, 14
26.17, 10
26.18, 11
26.19, 19
26.2, 13
26.21, 15
26.22, 10
26.23, 8
26.24, 18
26.25, 12
26.26, 14
26.27, 21
26.28, 9
26.29, 13
26.3, 9
26.31, 12
26.32, 19
26.33, 8
26.34, 12
26.35, 11
26.36, 9
26.37, 8
26.38, 9
26.39, 15
26.4, 9
26.41, 16
26.42, 12
26.43, 13
26.44, 17
26.45, 9
26.46, 10
26.47, 9
26.48, 18
26.49, 10
26.5, 13
26.51, 8
26.52, 12
26.53, 5
26.54, 13
26.55, 10
26.56, 8
26.57, 13
26.58, 10
26.59, 15
26.6, 8
26.61, 15
26.62, 12
26.63, 13
26.64, 11
26.65, 11
26.66, 8
26.67, 14
26.68, 7
26.69, 16
26.7, 15
26.71, 16
26.72, 15
26.73, 10
26.74, 16
26.75, 16
26.76, 13
26.77, 6
26.78, 13
26.79, 12
26.8, 18
26.81, 14
26.82, 19
26.83, 22
26.84, 14
26.85, 13
26.86, 15
26.87, 11
26.88, 12
26.89, 21
26.9, 11
26.91, 7
26.92, 20
26.93, 10
26.94, 9
26.95, 11
26.96, 8
26.97, 11
26.98, 8
26.99, 21
27, 9
27.01, 8
27.02, 7
27.03, 8
27.04, 15
27.05, 17
27.06, 13
27.07, 14
27.08, 11
27.09, 9
27.1, 12
27.11, 11
27.12, 10
27.13, 12
27.14, 19
27.15, 11
27.16, 15
27.17, 11
27.18, 4
27.19, 15
27.2, 7
27.21, 6
27.22, 7
27.23, 12
27.24, 13
27.25, 15
27.26, 16
27.27, 19
27.28, 12
27.29, 11
27.3, 11
27.31, 13
27.32, 12
27.33, 15
27.34, 17
27.35, 7
27.36, 12
27.37, 15
27.38, 9
27.39, 7
27.4, 9
27.41, 11
27.42, 11
27.43, 9
27.44, 13
27.45, 15
27.46, 11
27.47, 12
27.48, 12
27.49, 13
27.5, 17
27.51, 11
27.52, 15
27.53, 13
27.54, 11
27.55, 11
27.56, 13
27.57, 13
27.58, 7
27.59, 11
27.6, 15
27.61, 11
27.62, 12
27.63, 12
27.64, 19
27.65, 12
27.66, 13
27.67, 11
27.68, 17
27.69, 14
27.7, 9
27.71, 11
27.72, 14
27.73, 6
27.74, 15
27.75, 12
27.76, 10
27.77, 11
27.78, 13
27.79, 8
27.8, 11
27.81, 15
27.82, 16
27.83, 13
27.84, 9
27.85, 7
27.86, 11
27.87, 7
27.88, 6
27.89, 17
27.9, 8
27.91, 16
27.92, 8
27.93, 15
27.94, 5
27.95, 11
27.96, 7
27.97, 13
27.98, 17
27.99, 15
28, 9
28.01, 9
28.02, 14
28.03, 13
28.04, 11
28.05, 11
28.06, 9
28.07, 13
28.08, 9
28.09, 17
28.1, 15
28.11, 15
28.12, 13
28.13, 13
28.14, 13
28.15, 10
28.16, 21
28.17, 13
28.18, 9
28.19, 16
28.2, 14
28.21, 13
28.22, 16
28.23, 11
28.24, 15
28.25, 14
28.26, 13
28.27, 13
28.28, 14
28.29, 15
28.3, 12
28.31, 12
28.32, 5
28.33, 12
28.34, 16
28.35, 14
28.36, 8
28.37, 13
28.38, 15
28.39, 14
28.4, 12
28.41, 12
28.42, 18
28.43, 12
28.44, 15
28.45, 9
28.46, 14
28.47, 12
28.48, 19
28.49, 11
28.5, 15
28.51, 12
28.52, 11
28.53, 15
28.54, 16
28.55, 8
28.56, 12
28.57, 6
28.58, 13
28.59, 13
28.6, 12
28.61, 9
28.62, 7
28.63, 19
28.64, 15
28.65, 8
28.66, 8
28.67, 15
28.68, 19
28.69, 12
28.7, 10
28.71, 13
28.72, 12
28.73, 12
28.74, 18
28.75, 13
28.76, 8
28.77, 12
28.78, 18
28.79, 7
28.8, 15
28.81, 11
28.82, 13
28.83, 10
28.84, 13
28.85, 22
28.86, 14
28.87, 13
28.88, 14
28.89, 16
28.9, 10
28.91, 9
28.92, 15
28.93, 8
28.94, 15
28.95, 5
28.96, 14
28.97, 9
28.98, 13
28.99, 21
29, 18
29.01, 13
29.02, 15
29.03, 12
29.04, 15
29.05, 16
29.06, 12
29.07, 11
29.08, 12
29.09, 10
29.1, 18
29.11, 12
29.12, 13
29.13, 12
29.14, 10
29.15, 11
29.16, 7
29.17, 11
29.18, 18
29.19, 10
29.2, 11
29.21, 15
29.22, 15
29.23, 14
29.24, 8
29.25, 9
29.26, 11
29.27, 12
29.28, 12
29.29, 15
29.3, 11
29.31, 20
29.32, 19
29.33, 11
29.34, 15
29.35, 16
29.36, 9
29.37, 11
29.38, 20
29.39, 12
29.4, 18
29.41, 17
29.42, 17
29.43, 15
29.44, 17
29.45, 14
29.46, 17
29.47, 16
29.48, 16
29.49, 19
29.5, 10
29.51, 19
29.52, 13
29.53, 20
29.54, 15
29.55, 20
29.56, 8
29.57, 14
29.58, 13
29.59, 7
29.6, 11
29.61, 18
29.62, 13
29.63, 13
29.64, 17
29.65, 12
29.66, 24
29.67, 23
29.68, 15
29.69, 31
29.7, 27
29.71, 29
29.72, 24
29.73, 25
29.74, 24
29.75, 18
29.76, 16
29.77, 21
29.78, 13
29.79, 15
29.8, 14
29.81, 21
29.82, 10
29.83, 10
29.84, 14
29.85, 12
29.86, 16
29.87, 14
29.88, 19
29.89, 16
29.9, 16
29.91, 19
29.92, 22
29.93, 13
29.94, 14
29.95, 9
29.96, 9
29.97, 8
29.98, 10
29.99, 11
30, 14
30.01, 11
30.02, 9
30.03, 8
30.04, 11
30.05, 15
30.06, 11
30.07, 12
30.08, 12
30.09, 10
30.1, 13
30.11, 14
30.12, 11
30.13, 16
30.14, 12
30.15, 13
30.16, 12
30.17, 6
30.18, 8
30.19, 10
30.2, 8
30.21, 11
30.22, 8
30.23, 15
30.24, 13
30.25, 8
30.26, 11
30.27, 16
30.28, 8
30.29, 11
30.3, 11
30.31, 13
30.32, 19
30.33, 15
30.34, 13
30.35, 4
30.36, 12
30.37, 12
30.38, 15
30.39, 10
30.4, 11
30.41, 5
30.42, 13
30.43, 13
30.44, 8
30.45, 17
30.46, 9
30.47, 15
30.48, 10
30.49, 13
30.5, 9
30.51, 3
30.52, 15
30.53, 8
30.54, 9
30.55, 7
30.56, 17
30.57, 9
30.58, 10
30.59, 11
30.6, 11
30.61, 6
30.62, 14
30.63, 15
30.64, 19
30.65, 5
30.66, 9
30.67, 5
30.68, 12
30.69, 8
30.7, 17
30.71, 10
30.72, 6
30.73, 11
30.74, 13
30.75, 10
30.76, 7
30.77, 12
30.78, 12
30.79, 8
30.8, 11
30.81, 14
30.82, 12
30.83, 14
30.84, 9
30.85, 12
30.86, 12
30.87, 10
30.88, 12
30.89, 16
30.9, 12
30.91, 13
30.92, 16
30.93, 10
30.94, 5
30.95, 14
30.96, 17
30.97, 7
30.98, 10
30.99, 7
31, 7
31.01, 18
31.02, 8
31.03, 9
31.04, 9
31.05, 11
31.06, 12
31.07, 14
31.08, 11
31.09, 8
31.1, 4
31.11, 17
31.12, 12
31.13, 14
31.14, 12
31.15, 13
31.16, 12
31.17, 10
31.18, 6
31.19, 15
31.2, 13
31.21, 17
31.22, 9
31.23, 12
31.24, 9
31.25, 16
31.26, 9
31.27, 9
31.28, 7
31.29, 11
31.3, 7
31.31, 9
31.32, 17
31.33, 7
31.34, 12
31.35, 16
31.36, 18
31.37, 9
31.38, 12
31.39, 12
31.4, 8
31.41, 19
31.42, 7
31.43, 13
31.44, 11
31.45, 4
31.46, 14
31.47, 12
31.48, 9
31.49, 14
31.5, 13
31.51, 12
31.52, 13
31.53, 11
31.54, 20
31.55, 15
31.56, 12
31.57, 14
31.58, 8
31.59, 8
31.6, 13
31.61, 8
31.62, 15
31.63, 14
31.64, 9
31.65, 10
31.66, 9
31.67, 9
31.68, 13
31.69, 9
31.7, 13
31.71, 10
31.72, 13
31.73, 11
31.74, 22
31.75, 15
31.76, 17
31.77, 15
31.78, 17
31.79, 21
31.8, 41
31.81, 27
31.82, 24
31.83, 19
31.84, 24
31.85, 18
31.86, 23
31.87, 24
31.88, 21
31.89, 26
31.9, 24
31.91, 24
31.92, 21
31.93, 25
31.94, 13
31.95, 16
31.96, 12
31.97, 11
31.98, 22
31.99, 11
32, 17
32.01, 20
32.02, 22
32.03, 18
32.04, 8
32.05, 16
32.06, 7
32.07, 17
32.08, 14
32.09, 16
32.1, 21
32.11, 16
32.12, 16
32.13, 18
32.14, 25
32.15, 16
32.16, 23
32.17, 31
32.18, 35
32.19, 37
32.2, 32
32.21, 25
32.22, 22
32.23, 22
32.24, 22
32.25, 18
32.26, 32
32.27, 22
32.28, 28
32.29, 25
32.3, 20
32.31, 18
32.32, 9
32.33, 12
32.34, 14
32.35, 16
32.36, 13
32.37, 12
32.38, 11
32.39, 14
32.4, 22
32.41, 18
32.42, 13
32.43, 8
32.44, 16
32.45, 19
32.46, 19
32.47, 18
32.48, 18
32.49, 14
32.5, 15
32.51, 10
32.52, 20
32.53, 29
32.54, 14
32.55, 12
32.56, 17
32.57, 14
32.58, 15
32.59, 23
32.6, 22
32.61, 25
32.62, 18
32.63, 20
32.64, 20
32.65, 31
32.66, 30
32.67, 41
32.68, 55
32.69, 69
32.7, 83
32.71, 76
32.72, 90
32.73, 83
32.74, 106
32.75, 88
32.76, 100
32.77, 95
32.78, 114
32.79, 80
32.8, 78
32.81, 101
32.82, 99
32.83, 81
32.84, 102
32.85, 94
32.86, 89
32.87, 99
32.88, 83
32.89, 98
32.9, 133
32.91, 155
32.92, 241
32.93, 375
32.94, 625
32.95, 824
32.96, 844
32.97, 805
32.98, 607
32.99, 601
33, 497
33.01, 442
33.02, 435
33.03, 469
33.04, 501
33.05, 471
33.06, 395
33.07, 343
33.08, 264
33.09, 212
33.1, 183
33.11, 145
33.12, 137
33.13, 164
33.14, 203
33.15, 218
33.16, 252
33.17, 229
33.18, 197
33.19, 178
33.2, 179
33.21, 112
33.22, 106
33.23, 122
33.24, 115
33.25, 103
33.26, 125
33.27, 113
33.28, 82
33.29, 58
33.3, 42
33.31, 37
33.32, 39
33.33, 30
33.34, 26
33.35, 22
33.36, 30
33.37, 23
33.38, 24
33.39, 22
33.4, 20
33.41, 24
33.42, 18
33.43, 21
33.44, 18
33.45, 18
33.46, 23
33.47, 19
33.48, 17
33.49, 14
33.5, 14
33.51, 22
33.52, 12
33.53, 10
33.54, 17
33.55, 10
33.56, 14
33.57, 28
33.58, 16
33.59, 18
33.6, 14
33.61, 12
33.62, 13
33.63, 22
33.64, 15
33.65, 18
33.66, 16
33.67, 19
33.68, 20
33.69, 13
33.7, 19
33.71, 15
33.72, 15
33.73, 15
33.74, 16
33.75, 15
33.76, 9
33.77, 16
33.78, 20
33.79, 18
33.8, 16
33.81, 13
33.82, 21
33.83, 17
33.84, 14
33.85, 13
33.86, 9
33.87, 16
33.88, 13
33.89, 10
33.9, 16
33.91, 16
33.92, 13
33.93, 10
33.94, 20
33.95, 15
33.96, 17
33.97, 16
33.98, 10
33.99, 11
34, 15
34.01, 14
34.02, 13
34.03, 25
34.04, 14
34.05, 22
34.06, 12
34.07, 13
34.08, 18
34.09, 18
34.1, 8
34.11, 19
34.12, 17
34.13, 23
34.14, 10
34.15, 12
34.16, 16
34.17, 16
34.18, 10
34.19, 14
34.2, 11
34.21, 18
34.22, 20
34.23, 13
34.24, 8
34.25, 9
34.26, 11
34.27, 15
34.28, 16
34.29, 19
34.3, 18
34.31, 13
34.32, 11
34.33, 19
34.34, 15
34.35, 17
34.36, 12
34.37, 13
34.38, 18
34.39, 10
34.4, 13
34.41, 8
34.42, 9
34.43, 9
34.44, 16
34.45, 12
34.46, 19
34.47, 8
34.48, 9
34.49, 13
34.5, 15
34.51, 12
34.52, 9
34.53, 9
34.54, 20
34.55, 9
34.56, 11
34.57, 8
34.58, 13
34.59, 11
34.6, 23
34.61, 11
34.62, 11
34.63, 15
34.64, 13
34.65, 11
34.66, 9
34.67, 13
34.68, 5
34.69, 11
34.7, 16
34.71, 6
34.72, 12
34.73, 11
34.74, 18
34.75, 12
34.76, 14
34.77, 18
34.78, 17
34.79, 13
34.8, 15
34.81, 10
34.82, 20
34.83, 16
34.84, 16
34.85, 17
34.86, 10
34.87, 11
34.88, 26
34.89, 12
34.9, 8
34.91, 10
34.92, 15
34.93, 11
34.94, 14
34.95, 11
34.96, 18
34.97, 9
34.98, 18
34.99, 13
35, 11
35.01, 12
35.02, 14
35.03, 18
35.04, 16
35.05, 12
35.06, 15
35.07, 16
35.08, 16
35.09, 11
35.1, 16
35.11, 16
35.12, 12
35.13, 14
35.14, 14
35.15, 20
35.16, 10
35.17, 14
35.18, 23
35.19, 11
35.2, 12
35.21, 7
35.22, 13
35.23, 7
35.24, 14
35.25, 13
35.26, 15
35.27, 9
35.28, 20
35.29, 12
35.3, 13
35.31, 8
35.32, 11
35.33, 16
35.34, 16
35.35, 17
35.36, 11
35.37, 17
35.38, 7
35.39, 9
35.4, 11
35.41, 8
35.42, 12
35.43, 8
35.44, 16
35.45, 16
35.46, 16
35.47, 12
35.48, 11
35.49, 15
35.5, 17
35.51, 7
35.52, 11
35.53, 17
35.54, 7
35.55, 12
35.56, 13
35.57, 9
35.58, 15
35.59, 16
35.6, 12
35.61, 20
35.62, 13
35.63, 13
35.64, 8
35.65, 9
35.66, 12
35.67, 8
35.68, 11
35.69, 12
35.7, 16
35.71, 19
35.72, 13
35.73, 7
35.74, 10
35.75, 7
35.76, 13
35.77, 9
35.78, 16
35.79, 15
35.8, 14
35.81, 14
35.82, 9
35.83, 6
35.84, 13
35.85, 8
35.86, 13
35.87, 8
35.88, 14
35.89, 14
35.9, 22
35.91, 12
35.92, 15
35.93, 12
35.94, 12
35.95, 14
35.96, 14
35.97, 8
35.98, 12
35.99, 9
36, 12
36.01, 11
36.02, 15
36.03, 11
36.04, 13
36.05, 14
36.06, 12
36.07, 11
36.08, 18
36.09, 16
36.1, 9
36.11, 17
36.12, 9
36.13, 17
36.14, 14
36.15, 13
36.16, 10
36.17, 6
36.18, 11
36.19, 5
36.2, 14
36.21, 12
36.22, 14
36.23, 13
36.24, 14
36.25, 11
36.26, 9
36.27, 8
36.28, 13
36.29, 15
36.3, 11
36.31, 11
36.32, 8
36.33, 13
36.34, 12
36.35, 14
36.36, 6
36.37, 13
36.38, 13
36.39, 10
36.4, 10
36.41, 12
36.42, 12
36.43, 10
36.44, 8
36.45, 18
36.46, 21
36.47, 13
36.48, 14
36.49, 15
36.5, 9
36.51, 10
36.52, 5
36.53, 13
36.54, 14
36.55, 6
36.56, 17
36.57, 9
36.58, 12
36.59, 11
36.6, 10
36.61, 19
36.62, 11
36.63, 12
36.64, 12
36.65, 15
36.66, 10
36.67, 14
36.68, 10
36.69, 13
36.7, 11
36.71, 12
36.72, 19
36.73, 15
36.74, 19
36.75, 6
36.76, 16
36.77, 19
36.78, 18
36.79, 13
36.8, 12
36.81, 18
36.82, 23
36.83, 23
36.84, 27
36.85, 27
36.86, 15
36.87, 14
36.88, 13
36.89, 17
36.9, 12
36.91, 24
36.92, 16
36.93, 17
36.94, 21
36.95, 15
36.96, 15
36.97, 13
36.98, 6
36.99, 11
37, 11
37.01, 13
37.02, 9
37.03, 9
37.04, 9
37.05, 21
37.06, 23
37.07, 21
37.08, 19
37.09, 24
37.1, 16
37.11, 20
37.12, 20
37.13, 24
37.14, 11
37.15, 16
37.16, 13
37.17, 10
37.18, 11
37.19, 15
37.2, 16
37.21, 16
37.22, 14
37.23, 16
37.24, 18
37.25, 19
37.26, 15
37.27, 15
37.28, 19
37.29, 13
37.3, 5
37.31, 13
37.32, 7
37.33, 10
37.34, 7
37.35, 4
37.36, 16
37.37, 10
37.38, 15
37.39, 7
37.4, 14
37.41, 12
37.42, 13
37.43, 16
37.44, 3
37.45, 13
37.46, 5
37.47, 13
37.48, 10
37.49, 13
37.5, 12
37.51, 7
37.52, 13
37.53, 15
37.54, 8
37.55, 14
37.56, 9
37.57, 14
37.58, 13
37.59, 13
37.6, 9
37.61, 11
37.62, 9
37.63, 12
37.64, 9
37.65, 7
37.66, 15
37.67, 12
37.68, 8
37.69, 9
37.7, 18
37.71, 10
37.72, 7
37.73, 20
37.74, 8
37.75, 7
37.76, 10
37.77, 7
37.78, 16
37.79, 10
37.8, 15
37.81, 10
37.82, 14
37.83, 12
37.84, 13
37.85, 14
37.86, 10
37.87, 17
37.88, 12
37.89, 12
37.9, 15
37.91, 13
37.92, 6
37.93, 8
37.94, 13
37.95, 10
37.96, 17
37.97, 10
37.98, 5
37.99, 12
38, 10
38.01, 14
38.02, 15
38.03, 10
38.04, 9
38.05, 16
38.06, 11
38.07, 19
38.08, 11
38.09, 11
38.1, 10
38.11, 9
38.12, 10
38.13, 10
38.14, 10
38.15, 13
38.16, 15
38.17, 13
38.18, 15
38.19, 13
38.2, 11
38.21, 15
38.22, 6
38.23, 12
38.24, 14
38.25, 9
38.26, 10
38.27, 5
38.28, 11
38.29, 10
38.3, 15
38.31, 8
38.32, 7
38.33, 13
38.34, 12
38.35, 12
38.36, 6
38.37, 11
38.38, 12
38.39, 13
38.4, 8
38.41, 7
38.42, 8
38.43, 7
38.44, 10
38.45, 13
38.46, 12
38.47, 11
38.48, 11
38.49, 11
38.5, 11
38.51, 10
38.52, 9
38.53, 14
38.54, 6
38.55, 8
38.56, 12
38.57, 10
38.58, 10
38.59, 13
38.6, 11
38.61, 6
38.62, 14
38.63, 11
38.64, 17
38.65, 14
38.66, 15
38.67, 12
38.68, 20
38.69, 23
38.7, 20
38.71, 25
38.72, 22
38.73, 22
38.74, 17
38.75, 17
38.76, 24
38.77, 11
38.78, 21
38.79, 16
38.8, 20
38.81, 23
38.82, 12
38.83, 14
38.84, 19
38.85, 17
38.86, 19
38.87, 19
38.88, 16
38.89, 16
38.9, 30
38.91, 40
38.92, 39
38.93, 47
38.94, 50
38.95, 59
38.96, 68
38.97, 60
38.98, 72
38.99, 58
39, 36
39.01, 54
39.02, 41
39.03, 37
39.04, 37
39.05, 31
39.06, 39
39.07, 39
39.08, 38
39.09, 38
39.1, 35
39.11, 33
39.12, 16
39.13, 25
39.14, 20
39.15, 25
39.16, 15
39.17, 18
39.18, 11
39.19, 7
39.2, 17
39.21, 20
39.22, 14
39.23, 14
39.24, 11
39.25, 7
39.26, 9
39.27, 10
39.28, 15
39.29, 11
39.3, 6
39.31, 17
39.32, 7
39.33, 10
39.34, 13
39.35, 11
39.36, 13
39.37, 20
39.38, 12
39.39, 14
39.4, 15
39.41, 9
39.42, 11
39.43, 13
39.44, 14
39.45, 10
39.46, 5
39.47, 17
39.48, 13
39.49, 10
39.5, 12
39.51, 16
39.52, 9
39.53, 7
39.54, 8
39.55, 6
39.56, 6
39.57, 13
39.58, 12
39.59, 11
39.6, 12
39.61, 17
39.62, 14
39.63, 12
39.64, 13
39.65, 11
39.66, 9
39.67, 13
39.68, 21
39.69, 11
39.7, 6
39.71, 14
39.72, 14
39.73, 22
39.74, 14
39.75, 14
39.76, 14
39.77, 9
39.78, 10
39.79, 12
39.8, 18
39.81, 17
39.82, 11
39.83, 17
39.84, 18
39.85, 14
39.86, 13
39.87, 10
39.88, 8
39.89, 16
39.9, 15
39.91, 12
39.92, 16
39.93, 13
39.94, 15
39.95, 13
39.96, 16
39.97, 11
39.98, 19
39.99, 19
40, 17
40.01, 12
40.02, 7
40.03, 8
40.04, 6
40.05, 15
40.06, 9
40.07, 12
40.08, 14
40.09, 17
40.1, 13
40.11, 17
40.12, 15
40.13, 12
40.14, 16
40.15, 11
40.16, 10
40.17, 14
40.18, 16
40.19, 14
40.2, 9
40.21, 15
40.22, 10
40.23, 9
40.24, 10
40.25, 12
40.26, 11
40.27, 11
40.28, 10
40.29, 14
40.3, 13
40.31, 11
40.32, 8
40.33, 12
40.34, 16
40.35, 15
40.36, 3
40.37, 17
40.38, 11
40.39, 15
40.4, 16
40.41, 17
40.42, 14
40.43, 20
40.44, 22
40.45, 26
40.46, 42
40.47, 27
40.48, 37
40.49, 27
40.5, 32
40.51, 37
40.52, 25
40.53, 20
40.54, 23
40.55, 21
40.56, 20
40.57, 20
40.58, 27
40.59, 24
40.6, 31
40.61, 15
40.62, 15
40.63, 13
40.64, 12
40.65, 17
40.66, 12
40.67, 17
40.68, 14
40.69, 22
40.7, 9
40.71, 17
40.72, 14
40.73, 17
40.74, 14
40.75, 11
40.76, 14
40.77, 26
40.78, 14
40.79, 22
40.8, 21
40.81, 23
40.82, 32
40.83, 39
40.84, 43
40.85, 31
40.86, 18
40.87, 29
40.88, 27
40.89, 19
40.9, 22
40.91, 15
40.92, 33
40.93, 31
40.94, 25
40.95, 31
40.96, 22
40.97, 19
40.98, 19
40.99, 17
41, 18
41.01, 11
41.02, 17
41.03, 16
41.04, 12
41.05, 12
41.06, 18
41.07, 17
41.08, 8
41.09, 10
41.1, 12
41.11, 13
41.12, 13
41.13, 19
41.14, 13
41.15, 6
41.16, 14
41.17, 10
41.18, 9
41.19, 13
41.2, 10
41.21, 22
41.22, 9
41.23, 6
41.24, 13
41.25, 18
41.26, 9
41.27, 15
41.28, 25
41.29, 12
41.3, 10
41.31, 9
41.32, 8
41.33, 9
41.34, 15
41.35, 12
41.36, 9
41.37, 12
41.38, 4
41.39, 13
41.4, 19
41.41, 14
41.42, 12
41.43, 10
41.44, 11
41.45, 9
41.46, 5
41.47, 8
41.48, 13
41.49, 11
41.5, 15
41.51, 12
41.52, 12
41.53, 13
41.54, 14
41.55, 10
41.56, 11
41.57, 9
41.58, 12
41.59, 16
41.6, 14
41.61, 8
41.62, 7
41.63, 9
41.64, 12
41.65, 15
41.66, 6
41.67, 8
41.68, 11
41.69, 12
41.7, 5
41.71, 10
41.72, 5
41.73, 10
41.74, 13
41.75, 15
41.76, 9
41.77, 11
41.78, 9
41.79, 17
41.8, 9
41.81, 11
41.82, 13
41.83, 14
41.84, 11
41.85, 14
41.86, 13
41.87, 17
41.88, 14
41.89, 10
41.9, 8
41.91, 14
41.92, 12
41.93, 15
41.94, 14
41.95, 9
41.96, 11
41.97, 5
41.98, 6
41.99, 14
42, 5
42.01, 14
42.02, 16
42.03, 13
42.04, 16
42.05, 14
42.06, 13
42.07, 14
42.08, 13
42.09, 8
42.1, 12
42.11, 12
42.12, 14
42.13, 9
42.14, 18
42.15, 11
42.16, 10
42.17, 6
42.18, 14
42.19, 12
42.2, 6
42.21, 11
42.22, 13
42.23, 10
42.24, 9
42.25, 7
42.26, 6
42.27, 10
42.28, 15
42.29, 6
42.3, 12
42.31, 11
42.32, 10
42.33, 9
42.34, 13
42.35, 20
42.36, 22
42.37, 15
42.38, 17
42.39, 20
42.4, 25
42.41, 21
42.42, 27
42.43, 17
42.44, 19
42.45, 37
42.46, 19
42.47, 21
42.48, 26
42.49, 19
42.5, 19
42.51, 31
42.52, 35
42.53, 21
42.54, 25
42.55, 27
42.56, 11
42.57, 18
42.58, 22
42.59, 18
42.6, 18
42.61, 14
42.62, 12
42.63, 12
42.64, 10
42.65, 17
42.66, 21
42.67, 15
42.68, 14
42.69, 18
42.7, 8
42.71, 16
42.72, 10
42.73, 11
42.74, 10
42.75, 8
42.76, 14
42.77, 12
42.78, 8
42.79, 10
42.8, 17
42.81, 11
42.82, 8
42.83, 7
42.84, 8
42.85, 15
42.86, 7
42.87, 8
42.88, 16
42.89, 14
42.9, 9
42.91, 19
42.92, 17
42.93, 15
42.94, 8
42.95, 17
42.96, 10
42.97, 12
42.98, 9
42.99, 10
43, 12
43.01, 11
43.02, 7
43.03, 10
43.04, 16
43.05, 12
43.06, 12
43.07, 13
43.08, 13
43.09, 15
43.1, 14
43.11, 7
43.12, 10
43.13, 20
43.14, 13
43.15, 7
43.16, 8
43.17, 5
43.18, 11
43.19, 9
43.2, 12
43.21, 12
43.22, 17
43.23, 13
43.24, 16
43.25, 8
43.26, 12
43.27, 12
43.28, 14
43.29, 10
43.3, 11
43.31, 7
43.32, 16
43.33, 13
43.34, 10
43.35, 5
43.36, 8
43.37, 21
43.38, 9
43.39, 13
43.4, 9
43.41, 10
43.42, 16
43.43, 12
43.44, 13
43.45, 15
43.46, 15
43.47, 9
43.48, 8
43.49, 9
43.5, 9
43.51, 15
43.52, 18
43.53, 8
43.54, 9
43.55, 9
43.56, 10
43.57, 12
43.58, 9
43.59, 10
43.6, 9
43.61, 14
43.62, 13
43.63, 14
43.64, 15
43.65, 11
43.66, 14
43.67, 12
43.68, 8
43.69, 16
43.7, 15
43.71, 16
43.72, 10
43.73, 4
43.74, 13
43.75, 5
43.76, 10
43.77, 18
43.78, 10
43.79, 9
43.8, 9
43.81, 22
43.82, 15
43.83, 8
43.84, 8
43.85, 9
43.86, 15
43.87, 12
43.88, 10
43.89, 14
43.9, 13
43.91, 16
43.92, 16
43.93, 19
43.94, 13
43.95, 24
43.96, 21
43.97, 19
43.98, 19
43.99, 26
44, 24
44.01, 15
44.02, 20
44.03, 9
44.04, 14
44.05, 11
44.06, 19
44.07, 18
44.08, 22
44.09, 14
44.1, 16
44.11, 7
44.12, 21
44.13, 15
44.14, 11
44.15, 10
44.16, 22
44.17, 14
44.18, 13
44.19, 17
44.2, 23
44.21, 19
44.22, 19
44.23, 12
44.24, 18
44.25, 11
44.26, 11
44.27, 18
44.28, 13
44.29, 8
44.3, 23
44.31, 14
44.32, 11
44.33, 17
44.34, 14
44.35, 14
44.36, 12
44.37, 11
44.38, 7
44.39, 12
44.4, 9
44.41, 21
44.42, 14
44.43, 14
44.44, 19
44.45, 6
44.46, 12
44.47, 11
44.48, 12
44.49, 13
44.5, 18
44.51, 11
44.52, 14
44.53, 9
44.54, 25
44.55, 13
44.56, 15
44.57, 11
44.58, 11
44.59, 10
44.6, 9
44.61, 15
44.62, 10
44.63, 14
44.64, 12
44.65, 8
44.66, 13
44.67, 10
44.68, 14
44.69, 9
44.7, 12
44.71, 8
44.72, 12
44.73, 15
44.74, 10
44.75, 9
44.76, 6
44.77, 14
44.78, 15
44.79, 7
44.8, 13
44.81, 14
44.82, 12
44.83, 9
44.84, 14
44.85, 10
44.86, 13
44.87, 7
44.88, 11
44.89, 13
44.9, 11
44.91, 17
44.92, 8
44.93, 14
44.94, 13
44.95, 11
44.96, 16
44.97, 12
44.98, 12
44.99, 5
45, 10
45.01, 9
45.02, 15
45.03, 9
45.04, 13
45.05, 12
45.06, 8
45.07, 4
45.08, 11
45.09, 8
45.1, 20
45.11, 14
45.12, 12
45.13, 7
45.14, 14
45.15, 11
45.16, 7
45.17, 6
45.18, 12
45.19, 12
45.2, 5
45.21, 10
45.22, 20
45.23, 13
45.24, 11
45.25, 11
45.26, 16
45.27, 15
45.28, 15
45.29, 11
45.3, 12
45.31, 14
45.32, 12
45.33, 18
45.34, 9
45.35, 18
45.36, 6
45.37, 15
45.38, 12
45.39, 13
45.4, 13
45.41, 9
45.42, 7
45.43, 19
45.44, 16
45.45, 11
45.46, 6
45.47, 11
45.48, 10
45.49, 18
45.5, 4
45.51, 7
45.52, 11
45.53, 12
45.54, 10
45.55, 9
45.56, 10
45.57, 15
45.58, 17
45.59, 11
45.6, 9
45.61, 14
45.62, 8
45.63, 7
45.64, 11
45.65, 11
45.66, 10
45.67, 12
45.68, 16
45.69, 5
45.7, 11
45.71, 14
45.72, 14
45.73, 14
45.74, 14
45.75, 12
45.76, 13
45.77, 17
45.78, 9
45.79, 8
45.8, 15
45.81, 5
45.82, 13
45.83, 8
45.84, 14
45.85, 19
45.86, 14
45.87, 11
45.88, 12
45.89, 11
45.9, 12
45.91, 11
45.92, 14
45.93, 12
45.94, 13
45.95, 11
45.96, 8
45.97, 12
45.98, 18
45.99, 15
46, 17
46.01, 15
46.02, 22
46.03, 20
46.04, 14
46.05, 10
46.06, 17
46.07, 18
46.08, 12
46.09, 11
46.1, 18
46.11, 8
46.12, 14
46.13, 14
46.14, 13
46.15, 16
46.16, 15
46.17, 11
46.18, 9
46.19, 5
46.2, 16
46.21, 10
46.22, 21
46.23, 9
46.24, 15
46.25, 17
46.26, 3
46.27, 8
46.28, 10
46.29, 14
46.3, 13
46.31, 8
46.32, 15
46.33, 14
46.34, 18
46.35, 20
46.36, 11
46.37, 9
46.38, 14
46.39, 9
46.4, 10
46.41, 11
46.42, 15
46.43, 18
46.44, 16
46.45, 10
46.46, 11
46.47, 9
46.48, 23
46.49, 6
46.5, 14
46.51, 14
46.52, 10
46.53, 11
46.54, 12
46.55, 10
46.56, 15
46.57, 12
46.58, 8
46.59, 10
46.6, 13
46.61, 10
46.62, 11
46.63, 6
46.64, 16
46.65, 12
46.66, 17
46.67, 11
46.68, 19
46.69, 17
46.7, 15
46.71, 14
46.72, 14
46.73, 25
46.74, 22
46.75, 21
46.76, 13
46.77, 11
46.78, 15
46.79, 19
46.8, 20
46.81, 9
46.82, 17
46.83, 13
46.84, 15
46.85, 24
46.86, 11
46.87, 16
46.88, 19
46.89, 12
46.9, 17
46.91, 20
46.92, 22
46.93, 13
46.94, 13
46.95, 22
46.96, 17
46.97, 21
46.98, 22
46.99, 21
47, 18
47.01, 10
47.02, 30
47.03, 12
47.04, 37
47.05, 28
47.06, 24
47.07, 25
47.08, 24
47.09, 21
47.1, 33
47.11, 25
47.12, 31
47.13, 34
47.14, 44
47.15, 52
47.16, 54
47.17, 50
47.18, 50
47.19, 59
47.2, 82
47.21, 85
47.22, 114
47.23, 135
47.24, 192
47.25, 242
47.26, 239
47.27, 271
47.28, 331
47.29, 354
47.3, 439
47.31, 480
47.32, 527
47.33, 455
47.34, 376
47.35, 336
47.36, 273
47.37, 286
47.38, 272
47.39, 247
47.4, 304
47.41, 231
47.42, 238
47.43, 289
47.44, 290
47.45, 261
47.46, 211
47.47, 200
47.48, 141
47.49, 127
47.5, 110
47.51, 106
47.52, 76
47.53, 58
47.54, 49
47.55, 44
47.56, 49
47.57, 41
47.58, 43
47.59, 30
47.6, 32
47.61, 18
47.62, 29
47.63, 32
47.64, 22
47.65, 23
47.66, 20
47.67, 25
47.68, 26
47.69, 27
47.7, 24
47.71, 24
47.72, 15
47.73, 27
47.74, 19
47.75, 16
47.76, 17
47.77, 18
47.78, 20
47.79, 15
47.8, 10
47.81, 18
47.82, 13
47.83, 14
47.84, 19
47.85, 26
47.86, 18
47.87, 8
47.88, 12
47.89, 10
47.9, 13
47.91, 7
47.92, 14
47.93, 17
47.94, 16
47.95, 16
47.96, 15
47.97, 16
47.98, 14
47.99, 17
48, 20
48.01, 17
48.02, 9
48.03, 17
48.04, 21
48.05, 13
48.06, 17
48.07, 18
48.08, 11
48.09, 13
48.1, 19
48.11, 23
48.12, 14
48.13, 16
48.14, 12
48.15, 12
48.16, 19
48.17, 8
48.18, 19
48.19, 15
48.2, 12
48.21, 15
48.22, 18
48.23, 9
48.24, 14
48.25, 16
48.26, 14
48.27, 20
48.28, 15
48.29, 15
48.3, 10
48.31, 13
48.32, 16
48.33, 14
48.34, 14
48.35, 13
48.36, 15
48.37, 10
48.38, 20
48.39, 12
48.4, 18
48.41, 4
48.42, 11
48.43, 18
48.44, 14
48.45, 14
48.46, 10
48.47, 25
48.48, 16
48.49, 16
48.5, 15
48.51, 22
48.52, 7
48.53, 15
48.54, 12
48.55, 16
48.56, 15
48.57, 15
48.58, 15
48.59, 18
48.6, 12
48.61, 12
48.62, 12
48.63, 18
48.64, 19
48.65, 19
48.66, 11
48.67, 26
48.68, 22
48.69, 19
48.7, 19
48.71, 16
48.72, 23
48.73, 16
48.74, 16
48.75, 14
48.76, 22
48.77, 12
48.78, 23
48.79, 18
48.8, 32
48.81, 27
48.82, 26
48.83, 26
48.84, 28
48.85, 29
48.86, 21
48.87, 23
48.88, 26
48.89, 25
48.9, 15
48.91, 13
48.92, 18
48.93, 21
48.94, 19
48.95, 18
48.96, 18
48.97, 13
48.98, 16
48.99, 14
49, 19
49.01, 30
49.02, 17
49.03, 23
49.04, 17
49.05, 21
49.06, 17
49.07, 19
49.08, 17
49.09, 10
49.1, 11
49.11, 11
49.12, 10
49.13, 11
49.14, 16
49.15, 16
49.16, 13
49.17, 11
49.18, 10
49.19, 13
49.2, 21
49.21, 12
49.22, 16
49.23, 10
49.24, 19
49.25, 10
49.26, 18
49.27, 19
49.28, 16
49.29, 8
49.3, 14
49.31, 9
49.32, 15
49.33, 18
49.34, 27
49.35, 21
49.36, 14
49.37, 13
49.38, 14
49.39, 12
49.4, 9
49.41, 18
49.42, 12
49.43, 12
49.44, 10
49.45, 6
49.46, 23
49.47, 20
49.48, 18
49.49, 25
49.5, 15
49.51, 11
49.52, 17
49.53, 15
49.54, 15
49.55, 18
49.56, 12
49.57, 15
49.58, 11
49.59, 14
49.6, 16
49.61, 16
49.62, 16
49.63, 12
49.64, 13
49.65, 18
49.66, 12
49.67, 15
49.68, 7
49.69, 16
49.7, 15
49.71, 21
49.72, 17
49.73, 14
49.74, 13
49.75, 14
49.76, 16
49.77, 6
49.78, 10
49.79, 15
49.8, 13
49.81, 10
49.82, 19
49.83, 8
49.84, 16
49.85, 13
49.86, 16
49.87, 10
49.88, 16
49.89, 15
49.9, 10
49.91, 18
49.92, 13
49.93, 15
49.94, 13
49.95, 15
49.96, 17
49.97, 9
49.98, 8
49.99, 10
50, 8
50.01, 8
50.02, 14
50.03, 18
50.04, 17
50.05, 17
50.06, 11
50.07, 15
50.08, 9
50.09, 13
50.1, 12
50.11, 18
50.12, 15
50.13, 10
50.14, 14
50.15, 15
50.16, 9
50.17, 11
50.18, 19
50.19, 10
50.2, 6
50.21, 23
50.22, 14
50.23, 16
50.24, 11
50.25, 17
50.26, 12
50.27, 13
50.28, 9
50.29, 16
50.3, 14
50.31, 15
50.32, 9
50.33, 15
50.34, 3
50.35, 10
50.36, 16
50.37, 17
50.38, 21
50.39, 11
50.4, 9
50.41, 12
50.42, 12
50.43, 11
50.44, 14
50.45, 10
50.46, 10
50.47, 15
50.48, 9
50.49, 15
50.5, 18
50.51, 15
50.52, 18
50.53, 15
50.54, 14
50.55, 16
50.56, 14
50.57, 12
50.58, 11
50.59, 19
50.6, 13
50.61, 12
50.62, 7
50.63, 20
50.64, 7
50.65, 15
50.66, 12
50.67, 17
50.68, 16
50.69, 23
50.7, 15
50.71, 11
50.72, 5
50.73, 15
50.74, 10
50.75, 8
50.76, 10
50.77, 14
50.78, 14
50.79, 15
50.8, 9
50.81, 10
50.82, 12
50.83, 14
50.84, 13
50.85, 13
50.86, 17
50.87, 5
50.88, 16
50.89, 17
50.9, 11
50.91, 10
50.92, 15
50.93, 10
50.94, 10
50.95, 7
50.96, 14
50.97, 16
50.98, 10
50.99, 9
51, 15
51.01, 14
51.02, 14
51.03, 17
51.04, 9
51.05, 7
51.06, 22
51.07, 16
51.08, 14
51.09, 9
51.1, 12
51.11, 8
51.12, 5
51.13, 6
51.14, 13
51.15, 12
51.16, 14
51.17, 11
51.18, 11
51.19, 15
51.2, 11
51.21, 15
51.22, 12
51.23, 19
51.24, 13
51.25, 10
51.26, 12
51.27, 15
51.28, 15
51.29, 12
51.3, 12
51.31, 13
51.32, 16
51.33, 14
51.34, 12
51.35, 15
51.36, 12
51.37, 9
51.38, 7
51.39, 15
51.4, 9
51.41, 13
51.42, 19
51.43, 12
51.44, 19
51.45, 6
51.46, 13
51.47, 10
51.48, 11
51.49, 12
51.5, 10
51.51, 11
51.52, 10
51.53, 14
51.54, 8
51.55, 14
51.56, 13
51.57, 10
51.58, 10
51.59, 13
51.6, 11
51.61, 12
51.62, 10
51.63, 11
51.64, 19
51.65, 7
51.66, 13
51.67, 15
51.68, 9
51.69, 18
51.7, 12
51.71, 12
51.72, 10
51.73, 15
51.74, 12
51.75, 13
51.76, 11
51.77, 17
51.78, 17
51.79, 14
51.8, 16
51.81, 10
51.82, 14
51.83, 15
51.84, 9
51.85, 5
51.86, 9
51.87, 12
51.88, 12
51.89, 11
51.9, 11
51.91, 15
51.92, 17
51.93, 10
51.94, 13
51.95, 15
51.96, 14
51.97, 12
51.98, 14
51.99, 22
52, 19
52.01, 13
52.02, 7
52.03, 16
52.04, 11
52.05, 16
52.06, 16
52.07, 20
52.08, 16
52.09, 12
52.1, 12
52.11, 20
52.12, 17
52.13, 22
52.14, 14
52.15, 21
52.16, 17
52.17, 13
52.18, 17
52.19, 17
52.2, 13
52.21, 9
52.22, 12
52.23, 7
52.24, 13
52.25, 17
52.26, 20
52.27, 12
52.28, 9
52.29, 11
52.3, 15
52.31, 19
52.32, 16
52.33, 16
52.34, 6
52.35, 14
52.36, 9
52.37, 12
52.38, 14
52.39, 14
52.4, 8
52.41, 9
52.42, 17
52.43, 11
52.44, 8
52.45, 12
52.46, 13
52.47, 15
52.48, 10
52.49, 12
52.5, 15
52.51, 16
52.52, 11
52.53, 8
52.54, 16
52.55, 13
52.56, 13
52.57, 12
52.58, 15
52.59, 7
52.6, 15
52.61, 11
52.62, 10
52.63, 13
52.64, 13
52.65, 7
52.66, 14
52.67, 8
52.68, 14
52.69, 14
52.7, 11
52.71, 12
52.72, 6
52.73, 6
52.74, 8
52.75, 8
52.76, 8
52.77, 14
52.78, 8
52.79, 10
52.8, 14
52.81, 16
52.82, 12
52.83, 16
52.84, 12
52.85, 13
52.86, 16
52.87, 11
52.88, 10
52.89, 6
52.9, 18
52.91, 20
52.92, 21
52.93, 18
52.94, 19
52.95, 25
52.96, 19
52.97, 24
52.98, 22
52.99, 25
53, 28
53.01, 14
53.02, 21
53.03, 14
53.04, 21
53.05, 19
53.06, 16
53.07, 19
53.08, 15
53.09, 31
53.1, 13
53.11, 22
53.12, 21
53.13, 16
53.14, 20
53.15, 19
53.16, 18
53.17, 12
53.18, 19
53.19, 17
53.2, 22
53.21, 13
53.22, 16
53.23, 25
53.24, 17
53.25, 24
53.26, 13
53.27, 30
53.28, 29
53.29, 26
53.3, 28
53.31, 23
53.32, 20
53.33, 24
53.34, 24
53.35, 30
53.36, 28
53.37, 22
53.38, 29
53.39, 12
53.4, 19
53.41, 23
53.42, 21
53.43, 17
53.44, 13
53.45, 18
53.46, 18
53.47, 23
53.48, 17
53.49, 21
53.5, 15
53.51, 16
53.52, 17
53.53, 23
53.54, 11
53.55, 18
53.56, 17
53.57, 15
53.58, 13
53.59, 11
53.6, 12
53.61, 16
53.62, 10
53.63, 14
53.64, 12
53.65, 9
53.66, 10
53.67, 8
53.68, 7
53.69, 8
53.7, 16
53.71, 15
53.72, 10
53.73, 13
53.74, 11
53.75, 7
53.76, 13
53.77, 12
53.78, 17
53.79, 12
53.8, 11
53.81, 6
53.82, 15
53.83, 11
53.84, 11
53.85, 12
53.86, 21
53.87, 13
53.88, 12
53.89, 9
53.9, 7
53.91, 15
53.92, 9
53.93, 14
53.94, 13
53.95, 13
53.96, 7
53.97, 4
53.98, 16
53.99, 8
54, 6
54.01, 8
54.02, 12
54.03, 12
54.04, 8
54.05, 8
54.06, 8
54.07, 14
54.08, 12
54.09, 16
54.1, 11
54.11, 6
54.12, 8
54.13, 16
54.14, 6
54.15, 16
54.16, 10
54.17, 12
54.18, 13
54.19, 14
54.2, 15
54.21, 15
54.22, 9
54.23, 19
54.24, 11
54.25, 9
54.26, 12
54.27, 6
54.28, 12
54.29, 9
54.3, 7
54.31, 18
54.32, 9
54.33, 10
54.34, 12
54.35, 18
54.36, 15
54.37, 18
54.38, 19
54.39, 20
54.4, 27
54.41, 16
54.42, 18
54.43, 25
54.44, 23
54.45, 17
54.46, 33
54.47, 17
54.48, 22
54.49, 23
54.5, 22
54.51, 13
54.52, 13
54.53, 14
54.54, 26
54.55, 18
54.56, 19
54.57, 18
54.58, 16
54.59, 15
54.6, 15
54.61, 16
54.62, 16
54.63, 10
54.64, 9
54.65, 10
54.66, 17
54.67, 13
54.68, 17
54.69, 10
54.7, 13
54.71, 13
54.72, 13
54.73, 10
54.74, 10
54.75, 13
54.76, 17
54.77, 10
54.78, 11
54.79, 5
54.8, 14
54.81, 15
54.82, 12
54.83, 11
54.84, 8
54.85, 7
54.86, 10
54.87, 9
54.88, 12
54.89, 13
54.9, 13
54.91, 10
54.92, 16
54.93, 11
54.94, 12
54.95, 14
54.96, 14
54.97, 9
54.98, 13
54.99, 16
55, 8
55.01, 16
55.02, 13
55.03, 7
55.04, 12
55.05, 6
55.06, 14
55.07, 15
55.08, 8
55.09, 12
55.1, 12
55.11, 15
55.12, 11
55.13, 10
55.14, 8
55.15, 6
55.16, 9
55.17, 14
55.18, 11
55.19, 8
55.2, 10
55.21, 11
55.22, 9
55.23, 8
55.24, 9
55.25, 6
55.26, 6
55.27, 7
55.28, 8
55.29, 13
55.3, 7
55.31, 12
55.32, 10
55.33, 18
55.34, 12
55.35, 10
55.36, 11
55.37, 8
55.38, 10
55.39, 8
55.4, 6
55.41, 8
55.42, 10
55.43, 11
55.44, 12
55.45, 14
55.46, 9
55.47, 12
55.48, 11
55.49, 8
55.5, 10
55.51, 9
55.52, 10
55.53, 8
55.54, 9
55.55, 9
55.56, 6
55.57, 8
55.58, 13
55.59, 6
55.6, 10
55.61, 6
55.62, 7
55.63, 14
55.64, 11
55.65, 7
55.66, 11
55.67, 8
55.68, 7
55.69, 18
55.7, 9
55.71, 9
55.72, 7
55.73, 7
55.74, 10
55.75, 13
55.76, 9
55.77, 12
55.78, 15
55.79, 11
55.8, 10
55.81, 12
55.82, 7
55.83, 10
55.84, 14
55.85, 7
55.86, 11
55.87, 15
55.88, 13
55.89, 12
55.9, 14
55.91, 16
55.92, 15
55.93, 9
55.94, 16
55.95, 6
55.96, 13
55.97, 11
55.98, 9
55.99, 13
56, 6
56.01, 3
56.02, 10
56.03, 5
56.04, 10
56.05, 14
56.06, 18
56.07, 13
56.08, 10
56.09, 7
56.1, 4
56.11, 9
56.12, 20
56.13, 9
56.14, 9
56.15, 9
56.16, 5
56.17, 6
56.18, 10
56.19, 8
56.2, 8
56.21, 15
56.22, 10
56.23, 16
56.24, 11
56.25, 10
56.26, 10
56.27, 5
56.28, 5
56.29, 12
56.3, 7
56.31, 11
56.32, 14
56.33, 7
56.34, 11
56.35, 11
56.36, 14
56.37, 9
56.38, 12
56.39, 14
56.4, 8
56.41, 15
56.42, 10
56.43, 15
56.44, 7
56.45, 11
56.46, 9
56.47, 11
56.48, 12
56.49, 13
56.5, 10
56.51, 10
56.52, 4
56.53, 14
56.54, 8
56.55, 6
56.56, 13
56.57, 8
56.58, 4
56.59, 6
56.6, 8
56.61, 9
56.62, 10
56.63, 10
56.64, 13
56.65, 11
56.66, 10
56.67, 10
56.68, 6
56.69, 11
56.7, 5
56.71, 9
56.72, 9
56.73, 13
56.74, 14
56.75, 9
56.76, 13
56.77, 16
56.78, 15
56.79, 19
56.8, 9
56.81, 13
56.82, 7
56.83, 10
56.84, 11
56.85, 9
56.86, 11
56.87, 18
56.88, 12
56.89, 16
56.9, 12
56.91, 11
56.92, 11
56.93, 8
56.94, 7
56.95, 7
56.96, 10
56.97, 8
56.98, 9
56.99, 10
57, 5
57.01, 6
57.02, 12
57.03, 9
57.04, 9
57.05, 10
57.06, 11
57.07, 11
57.08, 12
57.09, 11
57.1, 11
57.11, 2
57.12, 11
57.13, 10
57.14, 12
57.15, 10
57.16, 15
57.17, 14
57.18, 15
57.19, 8
57.2, 11
57.21, 10
57.22, 11
57.23, 9
57.24, 6
57.25, 8
57.26, 8
57.27, 8
57.28, 13
57.29, 11
57.3, 9
57.31, 11
57.32, 7
57.33, 7
57.34, 9
57.35, 8
57.36, 13
57.37, 11
57.38, 6
57.39, 15
57.4, 8
57.41, 7
57.42, 16
57.43, 9
57.44, 10
57.45, 16
57.46, 11
57.47, 25
57.48, 15
57.49, 12
57.5, 19
57.51, 13
57.52, 15
57.53, 10
57.54, 8
57.55, 10
57.56, 11
57.57, 10
57.58, 11
57.59, 13
57.6, 11
57.61, 5
57.62, 15
57.63, 10
57.64, 18
57.65, 8
57.66, 13
57.67, 11
57.68, 8
57.69, 12
57.7, 8
57.71, 15
57.72, 14
57.73, 14
57.74, 7
57.75, 9
57.76, 7
57.77, 7
57.78, 19
57.79, 6
57.8, 14
57.81, 13
57.82, 14
57.83, 8
57.84, 13
57.85, 2
57.86, 8
57.87, 12
57.88, 8
57.89, 10
57.9, 16
57.91, 13
57.92, 13
57.93, 10
57.94, 14
57.95, 17
57.96, 7
57.97, 11
57.98, 9
57.99, 13
58, 9
58.01, 7
58.02, 10
58.03, 10
58.04, 10
58.05, 9
58.06, 11
58.07, 10
58.08, 14
58.09, 6
58.1, 9
58.11, 16
58.12, 17
58.13, 13
58.14, 8
58.15, 14
58.16, 13
58.17, 13
58.18, 10
58.19, 8
58.2, 15
58.21, 12
58.22, 11
58.23, 11
58.24, 13
58.25, 7
58.26, 21
58.27, 10
58.28, 12
58.29, 15
58.3, 15
58.31, 16
58.32, 12
58.33, 7
58.34, 14
58.35, 11
58.36, 10
58.37, 20
58.38, 21
58.39, 13
58.4, 15
58.41, 20
58.42, 17
58.43, 24
58.44, 15
58.45, 21
58.46, 21
58.47, 25
58.48, 34
58.49, 29
58.5, 33
58.51, 44
58.52, 38
58.53, 41
58.54, 56
58.55, 59
58.56, 61
58.57, 72
58.58, 72
58.59, 89
58.6, 105
58.61, 116
58.62, 153
58.63, 146
58.64, 136
58.65, 100
58.66, 86
58.67, 69
58.68, 70
58.69, 64
58.7, 74
58.71, 79
58.72, 119
58.73, 146
58.74, 155
58.75, 170
58.76, 153
58.77, 121
58.78, 108
58.79, 111
58.8, 113
58.81, 70
58.82, 57
58.83, 61
58.84, 64
58.85, 43
58.86, 36
58.87, 44
58.88, 56
58.89, 58
58.9, 90
58.91, 79
58.92, 76
58.93, 55
58.94, 48
58.95, 60
58.96, 49
58.97, 33
58.98, 52
58.99, 38
59, 49
59.01, 59
59.02, 62
59.03, 67
59.04, 59
59.05, 74
59.06, 92
59.07, 98
59.08, 105
59.09, 109
59.1, 91
59.11, 107
59.12, 127
59.13, 107
59.14, 92
59.15, 129
59.16, 103
59.17, 90
59.18, 73
59.19, 78
59.2, 52
59.21, 59
59.22, 56
59.23, 58
59.24, 71
59.25, 64
59.26, 66
59.27, 63
59.28, 45
59.29, 59
59.3, 56
59.31, 59
59.32, 42
59.33, 36
59.34, 36
59.35, 35
59.36, 31
59.37, 24
59.38, 26
59.39, 18
59.4, 9
59.41, 24
59.42, 19
59.43, 20
59.44, 16
59.45, 19
59.46, 19
59.47, 14
59.48, 15
59.49, 11
59.5, 13
59.51, 15
59.52, 10
59.53, 16
59.54, 11
59.55, 14
59.56, 12
59.57, 6
59.58, 16
59.59, 13
59.6, 14
59.61, 10
59.62, 17
59.63, 13
59.64, 8
59.65, 14
59.66, 11
59.67, 15
59.68, 18
59.69, 12
59.7, 5
59.71, 10
59.72, 9
59.73, 8
59.74, 11
59.75, 10
59.76, 12
59.77, 14
59.78, 11
59.79, 8
59.8, 11
59.81, 7
59.82, 10
59.83, 14
59.84, 12
59.85, 15
59.86, 9
59.87, 10
59.88, 8
59.89, 10
59.9, 13
59.91, 10
59.92, 14
59.93, 9
59.94, 6
59.95, 10
59.96, 9
59.97, 16
59.98, 9
59.99, 18
60, 14
60.01, 16
60.02, 7
60.03, 15
60.04, 14
60.05, 9
60.06, 16
60.07, 12
60.08, 10
60.09, 8
60.1, 10
60.11, 15
60.12, 12
60.13, 14
60.14, 3
60.15, 15
60.16, 11
60.17, 10
60.18, 5
60.19, 13
60.2, 15
60.21, 10
60.22, 12
60.23, 9
60.24, 10
60.25, 17
60.26, 19
60.27, 12
60.28, 12
60.29, 6
60.3, 12
60.31, 18
60.32, 10
60.33, 12
60.34, 13
60.35, 18
60.36, 13
60.37, 17
60.38, 13
60.39, 10
60.4, 8
60.41, 11
60.42, 5
60.43, 12
60.44, 11
60.45, 10
60.46, 10
60.47, 10
60.48, 12
60.49, 17
60.5, 10
60.51, 4
60.52, 17
60.53, 5
60.54, 12
60.55, 11
60.56, 8
60.57, 15
60.58, 14
60.59, 9
60.6, 3
60.61, 10
60.62, 15
60.63, 7
60.64, 8
60.65, 9
60.66, 13
60.67, 6
60.68, 12
60.69, 2
60.7, 7
60.71, 9
60.72, 6
60.73, 13
60.74, 12
60.75, 17
60.76, 12
60.77, 10
60.78, 9
60.79, 10
60.8, 9
60.81, 15
60.82, 10
60.83, 9
60.84, 11
60.85, 7
60.86, 12
60.87, 13
60.88, 13
60.89, 16
60.9, 10
60.91, 12
60.92, 13
60.93, 9
60.94, 6
60.95, 10
60.96, 13
60.97, 8
60.98, 13
60.99, 8
61, 13
61.01, 11
61.02, 11
61.03, 11
61.04, 9
61.05, 11
61.06, 15
61.07, 15
61.08, 7
61.09, 8
61.1, 6
61.11, 9
61.12, 11
61.13, 10
61.14, 8
61.15, 4
61.16, 16
61.17, 9
61.18, 13
61.19, 11
61.2, 8
61.21, 9
61.22, 11
61.23, 7
61.24, 9
61.25, 10
61.26, 13
61.27, 10
61.28, 7
61.29, 10
61.3, 12
61.31, 8
61.32, 14
61.33, 14
61.34, 18
61.35, 3
61.36, 14
61.37, 7
61.38, 9
61.39, 12
61.4, 12
61.41, 13
61.42, 11
61.43, 7
61.44, 12
61.45, 9
61.46, 9
61.47, 16
61.48, 19
61.49, 12
61.5, 6
61.51, 12
61.52, 11
61.53, 11
61.54, 9
61.55, 16
61.56, 10
61.57, 15
61.58, 15
61.59, 14
61.6, 9
61.61, 17
61.62, 22
61.63, 16
61.64, 17
61.65, 17
61.66, 24
61.67, 28
61.68, 20
61.69, 13
61.7, 12
61.71, 13
61.72, 8
61.73, 9
61.74, 9
61.75, 12
61.76, 23
61.77, 11
61.78, 19
61.79, 13
61.8, 12
61.81, 8
61.82, 13
61.83, 19
61.84, 17
61.85, 11
61.86, 13
61.87, 15
61.88, 11
61.89, 9
61.9, 9
61.91, 7
61.92, 14
61.93, 14
61.94, 12
61.95, 12
61.96, 6
61.97, 8
61.98, 8
61.99, 13
62, 8
62.01, 12
62.02, 9
62.03, 11
62.04, 10
62.05, 9
62.06, 11
62.07, 13
62.08, 9
62.09, 12
62.1, 11
62.11, 13
62.12, 5
62.13, 11
62.14, 8
62.15, 6
62.16, 9
62.17, 15
62.18, 6
62.19, 10
62.2, 6
62.21, 12
62.22, 8
62.23, 6
62.24, 15
62.25, 13
62.26, 9
62.27, 8
62.28, 12
62.29, 14
62.3, 14
62.31, 10
62.32, 13
62.33, 15
62.34, 13
62.35, 14
62.36, 12
62.37, 9
62.38, 11
62.39, 6
62.4, 9
62.41, 8
62.42, 12
62.43, 11
62.44, 9
62.45, 12
62.46, 10
62.47, 8
62.48, 9
62.49, 8
62.5, 7
62.51, 13
62.52, 12
62.53, 12
62.54, 8
62.55, 10
62.56, 11
62.57, 10
62.58, 12
62.59, 8
62.6, 16
62.61, 15
62.62, 9
62.63, 9
62.64, 12
62.65, 7
62.66, 7
62.67, 12
62.68, 13
62.69, 12
62.7, 11
62.71, 7
62.72, 13
62.73, 9
62.74, 14
62.75, 11
62.76, 10
62.77, 11
62.78, 15
62.79, 9
62.8, 11
62.81, 11
62.82, 19
62.83, 5
62.84, 9
62.85, 12
62.86, 14
62.87, 11
62.88, 10
62.89, 17
62.9, 16
62.91, 11
62.92, 13
62.93, 11
62.94, 8
62.95, 9
62.96, 13
62.97, 8
62.98, 9
62.99, 19
63, 13
63.01, 16
63.02, 9
63.03, 11
63.04, 8
63.05, 15
63.06, 6
63.07, 10
63.08, 8
63.09, 16
63.1, 13
63.11, 7
63.12, 9
63.13, 11
63.14, 5
63.15, 13
63.16, 7
63.17, 9
63.18, 11
63.19, 11
63.2, 11
63.21, 9
63.22, 10
63.23, 9
63.24, 13
63.25, 8
63.26, 8
63.27, 15
63.28, 12
63.29, 10
63.3, 6
63.31, 17
63.32, 13
63.33, 8
63.34, 10
63.35, 10
63.36, 8
63.37, 4
63.38, 8
63.39, 4
63.4, 9
63.41, 7
63.42, 8
63.43, 8
63.44, 8
63.45, 7
63.46, 16
63.47, 11
63.48, 10
63.49, 16
63.5, 8
63.51, 11
63.52, 7
63.53, 11
63.54, 13
63.55, 5
63.56, 9
63.57, 7
63.58, 9
63.59, 9
63.6, 14
63.61, 8
63.62, 11
63.63, 12
63.64, 8
63.65, 17
63.66, 7
63.67, 9
63.68, 5
63.69, 9
63.7, 12
63.71, 11
63.72, 5
63.73, 6
63.74, 7
63.75, 18
63.76, 13
63.77, 11
63.78, 9
63.79, 11
63.8, 7
63.81, 7
63.82, 10
63.83, 4
63.84, 8
63.85, 6
63.86, 14
63.87, 18
63.88, 13
63.89, 5
63.9, 12
63.91, 10
63.92, 6
63.93, 12
63.94, 11
63.95, 5
63.96, 11
63.97, 12
63.98, 12
63.99, 21
64, 14
64.01, 5
64.02, 10
64.03, 11
64.04, 10
64.05, 14
64.06, 17
64.07, 9
64.08, 13
64.09, 9
64.1, 9
64.11, 7
64.12, 7
64.13, 9
64.14, 11
64.15, 14
64.16, 12
64.17, 11
64.18, 13
64.19, 10
64.2, 10
64.21, 12
64.22, 11
64.23, 12
64.24, 10
64.25, 18
64.26, 9
64.27, 9
64.28, 13
64.29, 10
64.3, 6
64.31, 14
64.32, 14
64.33, 10
64.34, 10
64.35, 6
64.36, 17
64.37, 7
64.38, 10
64.39, 6
64.4, 7
64.41, 13
64.42, 6
64.43, 15
64.44, 9
64.45, 8
64.46, 15
64.47, 13
64.48, 8
64.49, 7
64.5, 5
64.51, 9
64.52, 5
64.53, 12
64.54, 13
64.55, 13
64.56, 19
64.57, 9
64.58, 7
64.59, 9
64.6, 9
64.61, 8
64.62, 6
64.63, 11
64.64, 10
64.65, 15
64.66, 9
64.67, 11
64.68, 9
64.69, 17
64.7, 6
64.71, 8
64.72, 17
64.73, 12
64.74, 9
64.75, 10
64.76, 14
64.77, 7
64.78, 9
64.79, 9
64.8, 8
64.81, 10
64.82, 14
64.83, 5
64.84, 8
64.85, 10
64.86, 9
64.87, 6
64.88, 12
64.89, 12
64.9, 8
64.91, 12
64.92, 6
64.93, 10
64.94, 7
64.95, 7
64.96, 12
64.97, 12
64.98, 12
64.99, 9
65, 16
65.01, 13
65.02, 13
65.03, 9
65.04, 17
65.05, 10
65.06, 12
65.07, 20
65.08, 9
65.09, 9
65.1, 16
65.11, 10
65.12, 18
65.13, 12
65.14, 13
65.15, 21
65.16, 16
65.17, 10
65.18, 13
65.19, 10
65.2, 7
65.21, 9
65.22, 10
65.23, 10
65.24, 15
65.25, 12
65.26, 17
65.27, 10
65.28, 13
65.29, 11
65.3, 16
65.31, 7
65.32, 13
65.33, 12
65.34, 11
65.35, 12
65.36, 10
65.37, 3
65.38, 15
65.39, 15
65.4, 8
65.41, 14
65.42, 7
65.43, 10
65.44, 10
65.45, 8
65.46, 5
65.47, 10
65.48, 7
65.49, 10
65.5, 13
65.51, 11
65.52, 7
65.53, 8
65.54, 6
65.55, 12
65.56, 6
65.57, 9
65.58, 6
65.59, 3
65.6, 11
65.61, 14
65.62, 8
65.63, 11
65.64, 14
65.65, 12
65.66, 7
65.67, 13
65.68, 7
65.69, 8
65.7, 6
65.71, 9
65.72, 8
65.73, 11
65.74, 11
65.75, 5
65.76, 11
65.77, 12
65.78, 10
65.79, 8
65.8, 13
65.81, 8
65.82, 4
65.83, 7
65.84, 7
65.85, 12
65.86, 12
65.87, 9
65.88, 11
65.89, 10
65.9, 14
65.91, 16
65.92, 5
65.93, 8
65.94, 10
65.95, 6
65.96, 7
65.97, 8
65.98, 10
65.99, 7
66, 9
66.01, 11
66.02, 10
66.03, 9
66.04, 6
66.05, 8
66.06, 13
66.07, 10
66.08, 12
66.09, 10
66.1, 6
66.11, 10
66.12, 10
66.13, 7
66.14, 12
66.15, 11
66.16, 6
66.17, 16
66.18, 6
66.19, 8
66.2, 7
66.21, 6
66.22, 9
66.23, 12
66.24, 12
66.25, 9
66.26, 10
66.27, 11
66.28, 7
66.29, 8
66.3, 8
66.31, 12
66.32, 14
66.33, 13
66.34, 10
66.35, 12
66.36, 7
66.37, 6
66.38, 8
66.39, 10
66.4, 8
66.41, 16
66.42, 5
66.43, 10
66.44, 8
66.45, 9
66.46, 10
66.47, 11
66.48, 9
66.49, 9
66.5, 11
66.51, 12
66.52, 11
66.53, 15
66.54, 19
66.55, 8
66.56, 20
66.57, 6
66.58, 8
66.59, 9
66.6, 13
66.61, 15
66.62, 8
66.63, 5
66.64, 11
66.65, 10
66.66, 7
66.67, 9
66.68, 10
66.69, 15
66.7, 8
66.71, 8
66.72, 6
66.73, 11
66.74, 9
66.75, 5
66.76, 7
66.77, 13
66.78, 9
66.79, 12
66.8, 9
66.81, 5
66.82, 15
66.83, 11
66.84, 6
66.85, 9
66.86, 10
66.87, 6
66.88, 14
66.89, 8
66.9, 10
66.91, 8
66.92, 9
66.93, 8
66.94, 12
66.95, 9
66.96, 6
66.97, 8
66.98, 11
66.99, 12
67, 8
67.01, 12
67.02, 14
67.03, 11
67.04, 9
67.05, 9
67.06, 11
67.07, 10
67.08, 6
67.09, 8
67.1, 9
67.11, 13
67.12, 7
67.13, 6
67.14, 8
67.15, 12
67.16, 6
67.17, 8
67.18, 8
67.19, 4
67.2, 14
67.21, 11
67.22, 12
67.23, 6
67.24, 5
67.25, 12
67.26, 6
67.27, 8
67.28, 11
67.29, 9
67.3, 5
67.31, 11
67.32, 10
67.33, 12
67.34, 10
67.35, 6
67.36, 4
67.37, 10
67.38, 7
67.39, 9
67.4, 7
67.41, 2
67.42, 12
67.43, 14
67.44, 7
67.45, 9
67.46, 15
67.47, 8
67.48, 10
67.49, 13
67.5, 4
67.51, 10
67.52, 9
67.53, 17
67.54, 10
67.55, 15
67.56, 12
67.57, 5
67.58, 15
67.59, 12
67.6, 9
67.61, 8
67.62, 8
67.63, 17
67.64, 10
67.65, 6
67.66, 4
67.67, 16
67.68, 12
67.69, 8
67.7, 9
67.71, 11
67.72, 8
67.73, 9
67.74, 7
67.75, 12
67.76, 3
67.77, 3
67.78, 13
67.79, 4
67.8, 9
67.81, 13
67.82, 16
67.83, 10
67.84, 13
67.85, 6
67.86, 7
67.87, 9
67.88, 10
67.89, 8
67.9, 11
67.91, 14
67.92, 16
67.93, 9
67.94, 5
67.95, 11
67.96, 8
67.97, 5
67.98, 11
67.99, 7
68, 10
68.01, 8
68.02, 9
68.03, 7
68.04, 12
68.05, 9
68.06, 11
68.07, 21
68.08, 5
68.09, 16
68.1, 14
68.11, 10
68.12, 5
68.13, 8
68.14, 10
68.15, 18
68.16, 8
68.17, 10
68.18, 7
68.19, 9
68.2, 6
68.21, 10
68.22, 9
68.23, 11
68.24, 7
68.25, 11
68.26, 11
68.27, 9
68.28, 4
68.29, 15
68.3, 15
68.31, 7
68.32, 8
68.33, 19
68.34, 8
68.35, 8
68.36, 13
68.37, 8
68.38, 15
68.39, 14
68.4, 14
68.41, 14
68.42, 9
68.43, 9
68.44, 10
68.45, 20
68.46, 11
68.47, 11
68.48, 9
68.49, 14
68.5, 10
68.51, 14
68.52, 11
68.53, 16
68.54, 18
68.55, 13
68.56, 19
68.57, 17
68.58, 20
68.59, 12
68.6, 15
68.61, 14
68.62, 21
68.63, 23
68.64, 23
68.65, 21
68.66, 14
68.67, 21
68.68, 21
68.69, 19
68.7, 12
68.71, 13
68.72, 14
68.73, 12
68.74, 15
68.75, 18
68.76, 15
68.77, 17
68.78, 21
68.79, 10
68.8, 16
68.81, 14
68.82, 15
68.83, 14
68.84, 15
68.85, 19
68.86, 17
68.87, 12
68.88, 19
68.89, 10
68.9, 18
68.91, 15
68.92, 16
68.93, 13
68.94, 16
68.95, 10
68.96, 20
68.97, 18
68.98, 13
68.99, 14
69, 20
69.01, 19
69.02, 16
69.03, 23
69.04, 36
69.05, 35
69.06, 42
69.07, 52
69.08, 57
69.09, 49
69.1, 43
69.11, 42
69.12, 52
69.13, 64
69.14, 51
69.15, 69
69.16, 71
69.17, 80
69.18, 75
69.19, 73
69.2, 81
69.21, 63
69.22, 58
69.23, 38
69.24, 43
69.25, 42
69.26, 41
69.27, 45
69.28, 45
69.29, 29
69.3, 38
69.31, 36
69.32, 38
69.33, 39
69.34, 40
69.35, 45
69.36, 42
69.37, 39
69.38, 40
69.39, 43
69.4, 48
69.41, 35
69.42, 36
69.43, 36
69.44, 18
69.45, 26
69.46, 19
69.47, 15
69.48, 19
69.49, 13
69.5, 19
69.51, 26
69.52, 27
69.53, 23
69.54, 22
69.55, 19
69.56, 33
69.57, 29
69.58, 24
69.59, 41
69.6, 31
69.61, 24
69.62, 40
69.63, 25
69.64, 33
69.65, 25
69.66, 21
69.67, 20
69.68, 15
69.69, 21
69.7, 19
69.71, 19
69.72, 23
69.73, 24
69.74, 20
69.75, 29
69.76, 15
69.77, 23
69.78, 24
69.79, 23
69.8, 24
69.81, 31
69.82, 24
69.83, 21
69.84, 21
69.85, 15
69.86, 20
69.87, 22
69.88, 25
69.89, 13
69.9, 13
69.91, 19
69.92, 14
69.93, 11
69.94, 11
69.95, 13
69.96, 17
69.97, 14
69.98, 11
69.99, 7
70, 8
70.01, 8
70.02, 5
70.03, 14
70.04, 14
70.05, 9
70.06, 12
70.07, 11
70.08, 10
70.09, 14
70.1, 7
70.11, 8
70.12, 12
70.13, 8
70.14, 8
70.15, 6
70.16, 6
70.17, 15
70.18, 11
70.19, 7
70.2, 18
70.21, 10
70.22, 7
70.23, 9
70.24, 9
70.25, 9
70.26, 7
70.27, 7
70.28, 11
70.29, 10
70.3, 10
70.31, 10
70.32, 8
70.33, 7
70.34, 11
70.35, 8
70.36, 12
70.37, 13
70.38, 11
70.39, 8
70.4, 6
70.41, 6
70.42, 4
70.43, 15
70.44, 10
70.45, 11
70.46, 3
70.47, 10
70.48, 9
70.49, 15
70.5, 16
70.51, 11
70.52, 11
70.53, 7
70.54, 11
70.55, 10
70.56, 14
70.57, 6
70.58, 9
70.59, 10
70.6, 9
70.61, 6
70.62, 10
70.63, 11
70.64, 7
70.65, 6
70.66, 6
70.67, 15
70.68, 10
70.69, 14
70.7, 7
70.71, 11
70.72, 6
70.73, 7
70.74, 11
70.75, 3
70.76, 12
70.77, 9
70.78, 13
70.79, 7
70.8, 9
70.81, 12
70.82, 10
70.83, 11
70.84, 7
70.85, 12
70.86, 9
70.87, 8
70.88, 15
70.89, 12
70.9, 9
70.91, 12
70.92, 11
70.93, 16
70.94, 11
70.95, 8
70.96, 6
70.97, 8
70.98, 12
70.99, 12
71, 12
71.01, 7
71.02, 12
71.03, 13
71.04, 12
71.05, 8
71.06, 13
71.07, 8
71.08, 11
71.09, 11
71.1, 9
71.11, 9
71.12, 14
71.13, 10
71.14, 9
71.15, 12
71.16, 10
71.17, 5
71.18, 8
71.19, 13
71.2, 10
71.21, 11
71.22, 10
71.23, 12
71.24, 9
71.25, 4
71.26, 9
71.27, 9
71.28, 13
71.29, 8
71.3, 15
71.31, 10
71.32, 13
71.33, 10
71.34, 12
71.35, 11
71.36, 7
71.37, 10
71.38, 13
71.39, 10
71.4, 15
71.41, 10
71.42, 11
71.43, 9
71.44, 9
71.45, 10
71.46, 9
71.47, 15
71.48, 18
71.49, 10
71.5, 4
71.51, 9
71.52, 12
71.53, 12
71.54, 13
71.55, 14
71.56, 7
71.57, 6
71.58, 10
71.59, 9
71.6, 12
71.61, 9
71.62, 10
71.63, 4
71.64, 5
71.65, 10
71.66, 6
71.67, 12
71.68, 10
71.69, 8
71.7, 5
71.71, 10
71.72, 7
71.73, 6
71.74, 5
71.75, 9
71.76, 9
71.77, 6
71.78, 6
71.79, 14
71.8, 15
71.81, 9
71.82, 10
71.83, 6
71.84, 12
71.85, 6
71.86, 10
71.87, 6
71.88, 7
71.89, 11
71.9, 13
71.91, 8
71.92, 12
71.93, 12
71.94, 11
71.95, 11
71.96, 18
71.97, 12
71.98, 8
71.99, 13
72, 16
72.01, 13
72.02, 11
72.03, 11
72.04, 9
72.05, 9
72.06, 9
72.07, 10
72.08, 9
72.09, 8
72.1, 11
72.11, 8
72.12, 6
72.13, 3
72.14, 13
72.15, 10
72.16, 8
72.17, 7
72.18, 9
72.19, 8
72.2, 5
72.21, 13
72.22, 13
72.23, 14
72.24, 9
72.25, 5
72.26, 8
72.27, 9
72.28, 10
72.29, 15
72.3, 9
72.31, 12
72.32, 10
72.33, 11
72.34, 9
72.35, 11
72.36, 14
72.37, 14
72.38, 5
72.39, 11
72.4, 13
72.41, 8
72.42, 11
72.43, 10
72.44, 10
72.45, 5
72.46, 7
72.47, 11
72.48, 7
72.49, 11
72.5, 9
72.51, 3
72.52, 11
72.53, 6
72.54, 8
72.55, 8
72.56, 13
72.57, 12
72.58, 8
72.59, 9
72.6, 6
72.61, 12
72.62, 11
72.63, 8
72.64, 9
72.65, 19
72.66, 8
72.67, 16
72.68, 8
72.69, 7
72.7, 8
72.71, 10
72.72, 10
72.73, 8
72.74, 11
72.75, 18
72.76, 7
72.77, 11
72.78, 9
72.79, 16
72.8, 14
72.81, 10
72.82, 16
72.83, 9
72.84, 16
72.85, 7
72.86, 11
72.87, 18
72.88, 14
72.89, 18
72.9, 9
72.91, 8
72.92, 14
72.93, 18
72.94, 10
72.95, 11
72.96, 24
72.97, 19
72.98, 14
72.99, 14
73, 15
73.01, 13
73.02, 8
73.03, 11
73.04, 17
73.05, 15
73.06, 12
73.07, 11
73.08, 5
73.09, 9
73.1, 17
73.11, 12
73.12, 17
73.13, 8
73.14, 13
73.15, 5
73.16, 7
73.17, 23
73.18, 13
73.19, 14
73.2, 12
73.21, 9
73.22, 8
73.23, 13
73.24, 13
73.25, 9
73.26, 9
73.27, 14
73.28, 14
73.29, 10
73.3, 13
73.31, 15
73.32, 11
73.33, 7
73.34, 15
73.35, 12
73.36, 16
73.37, 9
73.38, 11
73.39, 9
73.4, 9
73.41, 15
73.42, 9
73.43, 15
73.44, 8
73.45, 15
73.46, 14
73.47, 15
73.48, 11
73.49, 13
73.5, 9
73.51, 11
73.52, 16
73.53, 11
73.54, 17
73.55, 8
73.56, 13
73.57, 6
73.58, 7
73.59, 14
73.6, 7
73.61, 10
73.62, 9
73.63, 11
73.64, 10
73.65, 9
73.66, 6
73.67, 13
73.68, 9
73.69, 14
73.7, 9
73.71, 15
73.72, 9
73.73, 13
73.74, 10
73.75, 12
73.76, 10
73.77, 18
73.78, 9
73.79, 11
73.8, 21
73.81, 12
73.82, 13
73.83, 15
73.84, 12
73.85, 11
73.86, 8
73.87, 11
73.88, 18
73.89, 14
73.9, 6
73.91, 10
73.92, 18
73.93, 16
73.94, 13
73.95, 12
73.96, 15
73.97, 11
73.98, 7
73.99, 13
74, 10
74.01, 16
74.02, 6
74.03, 15
74.04, 12
74.05, 8
74.06, 6
74.07, 9
74.08, 14
74.09, 13
74.1, 12
74.11, 5
74.12, 10
74.13, 19
74.14, 10
74.15, 6
74.16, 9
74.17, 8
74.18, 12
74.19, 10
74.2, 12
74.21, 11
74.22, 9
74.23, 11
74.24, 12
74.25, 8
74.26, 12
74.27, 10
74.28, 13
74.29, 15
74.3, 6
74.31, 11
74.32, 9
74.33, 10
74.34, 9
74.35, 10
74.36, 9
74.37, 8
74.38, 15
74.39, 11
74.4, 15
74.41, 7
74.42, 7
74.43, 7
74.44, 9
74.45, 10
74.46, 11
74.47, 17
74.48, 10
74.49, 14
74.5, 11
74.51, 11
74.52, 3
74.53, 11
74.54, 14
74.55, 12
74.56, 8
74.57, 8
74.58, 9
74.59, 11
74.6, 12
74.61, 12
74.62, 6
74.63, 8
74.64, 7
74.65, 10
74.66, 4
74.67, 10
74.68, 8
74.69, 11
74.7, 13
74.71, 11
74.72, 11
74.73, 4
74.74, 7
74.75, 10
74.76, 6
74.77, 8
74.78, 7
74.79, 9
74.8, 13
74.81, 6
74.82, 10
74.83, 7
74.84, 18
74.85, 10
74.86, 10
74.87, 12
74.88, 7
74.89, 12
74.9, 3
74.91, 13
74.92, 8
74.93, 13
74.94, 6
74.95, 8
74.96, 14
74.97, 8
74.98, 10
74.99, 9
75, 9
75.01, 10
75.02, 8
75.03, 14
75.04, 9
75.05, 11
75.06, 4
75.07, 12
75.08, 9
75.09, 14
75.1, 15
75.11, 11
75.12, 9
75.13, 9
75.14, 15
75.15, 13
75.16, 10
75.17, 15
75.18, 10
75.19, 18
75.2, 11
75.21, 7
75.22, 11
75.23, 10
75.24, 11
75.25, 12
75.26, 9
75.27, 12
75.28, 7
75.29, 12
75.3, 16
75.31, 11
75.32, 10
75.33, 11
75.34, 7
75.35, 9
75.36, 12
75.37, 10
75.38, 11
75.39, 9
75.4, 11
75.41, 13
75.42, 7
75.43, 12
75.44, 7
75.45, 11
75.46, 12
75.47, 5
75.48, 14
75.49, 16
75.5, 14
75.51, 13
75.52, 11
75.53, 8
75.54, 12
75.55, 15
75.56, 9
75.57, 6
75.58, 8
75.59, 13
75.6, 13
75.61, 21
75.62, 12
75.63, 13
75.64, 16
75.65, 8
75.66, 4
75.67, 7
75.68, 12
75.69, 5
75.7, 8
75.71, 13
75.72, 14
75.73, 12
75.74, 8
75.75, 13
75.76, 14
75.77, 6
75.78, 12
75.79, 11
75.8, 7
75.81, 7
75.82, 4
75.83, 8
75.84, 9
75.85, 6
75.86, 11
75.87, 14
75.88, 9
75.89, 8
75.9, 6
75.91, 15
75.92, 9
75.93, 16
75.94, 8
75.95, 13
75.96, 17
75.97, 13
75.98, 6
75.99, 10
76, 13
76.01, 8
76.02, 12
76.03, 10
76.04, 10
76.05, 9
76.06, 9
76.07, 11
76.08, 9
76.09, 8
76.1, 14
76.11, 7
76.12, 12
76.13, 15
76.14, 9
76.15, 5
76.16, 7
76.17, 7
76.18, 10
76.19, 9
76.2, 17
76.21, 9
76.22, 6
76.23, 9
76.24, 11
76.25, 9
76.26, 7
76.27, 14
76.28, 9
76.29, 5
76.3, 11
76.31, 9
76.32, 12
76.33, 10
76.34, 3
76.35, 10
76.36, 8
76.37, 9
76.38, 14
76.39, 8
76.4, 15
76.41, 8
76.42, 9
76.43, 6
76.44, 10
76.45, 5
76.46, 9
76.47, 11
76.48, 6
76.49, 6
76.5, 7
76.51, 12
76.52, 11
76.53, 3
76.54, 6
76.55, 6
76.56, 14
76.57, 6
76.58, 6
76.59, 6
76.6, 14
76.61, 9
76.62, 5
76.63, 12
76.64, 13
76.65, 11
76.66, 11
76.67, 11
76.68, 10
76.69, 8
76.7, 15
76.71, 15
76.72, 8
76.73, 8
76.74, 9
76.75, 9
76.76, 11
76.77, 12
76.78, 8
76.79, 8
76.8, 15
76.81, 15
76.82, 9
76.83, 13
76.84, 12
76.85, 12
76.86, 8
76.87, 10
76.88, 6
76.89, 9
76.9, 11
76.91, 14
76.92, 7
76.93, 11
76.94, 8
76.95, 15
76.96, 10
76.97, 8
76.98, 10
76.99, 7
77, 15
77.01, 12
77.02, 14
77.03, 9
77.04, 7
77.05, 13
77.06, 13
77.07, 10
77.08, 12
77.09, 9
77.1, 11
77.11, 9
77.12, 9
77.13, 9
77.14, 8
77.15, 13
77.16, 10
77.17, 10
77.18, 15
77.19, 6
77.2, 12
77.21, 8
77.22, 9
77.23, 7
77.24, 11
77.25, 12
77.26, 10
77.27, 15
77.28, 17
77.29, 13
77.3, 6
77.31, 9
77.32, 5
77.33, 12
77.34, 4
77.35, 10
77.36, 14
77.37, 16
77.38, 8
77.39, 13
77.4, 5
77.41, 4
77.42, 11
77.43, 17
77.44, 14
77.45, 9
77.46, 16
77.47, 9
77.48, 12
77.49, 9
77.5, 6
77.51, 8
77.52, 7
77.53, 15
77.54, 6
77.55, 7
77.56, 4
77.57, 8
77.58, 7
77.59, 7
77.6, 7
77.61, 9
77.62, 8
77.63, 9
77.64, 12
77.65, 2
77.66, 14
77.67, 8
77.68, 13
77.69, 10
77.7, 9
77.71, 7
77.72, 10
77.73, 6
77.74, 8
77.75, 7
77.76, 15
77.77, 11
77.78, 8
77.79, 10
77.8, 9
77.81, 7
77.82, 16
77.83, 11
77.84, 10
77.85, 10
77.86, 6
77.87, 8
77.88, 11
77.89, 12
77.9, 10
77.91, 9
77.92, 9
77.93, 6
77.94, 8
77.95, 7
77.96, 14
77.97, 9
77.98, 11
77.99, 6
78, 6
78.01, 7
78.02, 10
78.03, 6
78.04, 14
78.05, 7
78.06, 11
78.07, 8
78.08, 10
78.09, 7
78.1, 15
78.11, 9
78.12, 11
78.13, 9
78.14, 11
78.15, 10
78.16, 10
78.17, 6
78.18, 13
78.19, 7
78.2, 12
78.21, 9
78.22, 13
78.23, 13
78.24, 11
78.25, 11
78.26, 13
78.27, 10
78.28, 18
78.29, 19
78.3, 14
78.31, 21
78.32, 12
78.33, 20
78.34, 15
78.35, 26
78.36, 25
78.37, 12
78.38, 13
78.39, 17
78.4, 12
78.41, 14
78.42, 17
78.43, 9
78.44, 16
78.45, 15
78.46, 13
78.47, 11
78.48, 11
78.49, 15
78.5, 12
78.51, 12
78.52, 18
78.53, 14
78.54, 14
78.55, 12
78.56, 13
78.57, 20
78.58, 17
78.59, 16
78.6, 23
78.61, 21
78.62, 19
78.63, 22
78.64, 22
78.65, 25
78.66, 20
78.67, 17
78.68, 33
78.69, 29
78.7, 30
78.71, 28
78.72, 26
78.73, 37
78.74, 30
78.75, 33
78.76, 36
78.77, 39
78.78, 35
78.79, 19
78.8, 28
78.81, 29
78.82, 23
78.83, 30
78.84, 32
78.85, 35
78.86, 28
78.87, 20
78.88, 23
78.89, 26
78.9, 26
78.91, 37
78.92, 27
78.93, 22
78.94, 19
78.95, 25
78.96, 21
78.97, 22
78.98, 26
78.99, 31
79, 23
79.01, 26
79.02, 25
79.03, 24
79.04, 33
79.05, 21
79.06, 17
79.07, 33
79.08, 35
79.09, 20
79.1, 24
79.11, 21
79.12, 20
79.13, 21
79.14, 21
79.15, 14
79.16, 11
79.17, 15
79.18, 10
79.19, 21
79.2, 16
79.21, 11
79.22, 8
79.23, 16
79.24, 17
79.25, 16
79.26, 13
79.27, 11
79.28, 12
79.29, 10
79.3, 13
79.31, 14
79.32, 16
79.33, 11
79.34, 13
79.35, 13
79.36, 8
79.37, 12
79.38, 10
79.39, 10
79.4, 15
79.41, 12
79.42, 11
79.43, 14
79.44, 15
79.45, 16
79.46, 10
79.47, 11
79.48, 11
79.49, 9
79.5, 9
79.51, 14
79.52, 16
79.53, 18
79.54, 10
79.55, 9
79.56, 22
79.57, 20
79.58, 20
79.59, 18
79.6, 11
79.61, 8
79.62, 15
79.63, 10
79.64, 7
79.65, 9
79.66, 22
79.67, 15
79.68, 12
79.69, 9
79.7, 10
79.71, 11
79.72, 8
79.73, 6
79.74, 6
79.75, 10
79.76, 8
79.77, 15
79.78, 16
79.79, 12
79.8, 10
79.81, 23
79.82, 13
79.83, 10
79.84, 13
79.85, 3
79.86, 15
79.87, 12
79.88, 13
79.89, 21
79.9, 20
79.91, 11
79.92, 11
79.93, 9
79.94, 10
79.95, 11
79.96, 8
79.97, 5
79.98, 14
79.99, 8
80, 8
80.01, 16
80.02, 3
80.03, 6
80.04, 19
80.05, 5
80.06, 10
80.07, 14
80.08, 11
80.09, 14
80.1, 10
80.11, 9
80.12, 16
80.13, 12
80.14, 12
80.15, 13
80.16, 7
80.17, 12
80.18, 9
80.19, 18
80.2, 11
80.21, 14
80.22, 12
80.23, 13
80.24, 20
80.25, 7
80.26, 4
80.27, 12
80.28, 14
80.29, 4
80.3, 9
80.31, 16
80.32, 10
80.33, 9
80.34, 11
80.35, 11
80.36, 7
80.37, 13
80.38, 9
80.39, 16
80.4, 11
80.41, 17
80.42, 9
80.43, 12
80.44, 5
80.45, 12
80.46, 6
80.47, 16
80.48, 9
80.49, 7
80.5, 9
80.51, 7
80.52, 6
80.53, 7
80.54, 8
80.55, 14
80.56, 7
80.57, 9
80.58, 6
80.59, 8
80.6, 13
80.61, 10
80.62, 13
80.63, 8
80.64, 12
80.65, 9
80.66, 11
80.67, 14
80.68, 9
80.69, 10
80.7, 14
80.71, 9
80.72, 7
80.73, 10
80.74, 5
80.75, 4
80.76, 17
80.77, 10
80.78, 7
80.79, 4
80.8, 8
80.81, 8
80.82, 4
80.83, 11
80.84, 12
80.85, 10
80.86, 17
80.87, 11
80.88, 12
80.89, 15
80.9, 8
80.91, 8
80.92, 8
80.93, 9
80.94, 12
80.95, 10
80.96, 13
80.97, 14
80.98, 5
80.99, 9
81, 8
81.01, 6
81.02, 7
81.03, 5
81.04, 6
81.05, 5
81.06, 6
81.07, 9
81.08, 16
81.09, 11
81.1, 10
81.11, 9
81.12, 13
81.13, 9
81.14, 6
81.15, 12
81.16, 7
81.17, 7
81.18, 9
81.19, 10
81.2, 9
81.21, 15
81.22, 13
81.23, 11
81.24, 9
81.25, 15
81.26, 6
81.27, 8
81.28, 12
81.29, 6
81.3, 6
81.31, 7
81.32, 9
81.33, 9
81.34, 13
81.35, 11
81.36, 8
81.37, 7
81.38, 9
81.39, 7
81.4, 10
81.41, 9
81.42, 7
81.43, 10
81.44, 5
81.45, 10
81.46, 11
81.47, 4
81.48, 14
81.49, 8
81.5, 12
81.51, 11
81.52, 10
81.53, 5
81.54, 11
81.55, 9
81.56, 12
81.57, 12
81.58, 4
81.59, 7
81.6, 4
81.61, 12
81.62, 7
81.63, 10
81.64, 9
81.65, 6
81.66, 8
81.67, 9
81.68, 11
81.69, 9
81.7, 8
81.71, 13
81.72, 8
81.73, 10
81.74, 9
81.75, 15
81.76, 10
81.77, 12
81.78, 7
81.79, 6
81.8, 9
81.81, 12
81.82, 12
81.83, 9
81.84, 8
81.85, 6
81.86, 11
81.87, 6
81.88, 7
81.89, 11
81.9, 16
81.91, 9
81.92, 11
81.93, 11
81.94, 9
81.95, 7
81.96, 10
81.97, 11
81.98, 8
81.99, 13
82, 5
82.01, 5
82.02, 9
82.03, 14
82.04, 11
82.05, 8
82.06, 15
82.07, 9
82.08, 10
82.09, 9
82.1, 14
82.11, 12
82.12, 8
82.13, 6
82.14, 5
82.15, 9
82.16, 11
82.17, 7
82.18, 6
82.19, 9
82.2, 12
82.21, 14
82.22, 10
82.23, 7
82.24, 7
82.25, 10
82.26, 7
82.27, 10
82.28, 12
82.29, 16
82.3, 16
82.31, 7
82.32, 3
82.33, 7
82.34, 8
82.35, 11
82.36, 7
82.37, 5
82.38, 5
82.39, 12
82.4, 12
82.41, 11
82.42, 11
82.43, 10
82.44, 8
82.45, 12
82.46, 8
82.47, 10
82.48, 15
82.49, 8
82.5, 10
82.51, 14
82.52, 11
82.53, 10
82.54, 6
82.55, 20
82.56, 22
82.57, 4
82.58, 13
82.59, 11
82.6, 5
82.61, 5
82.62, 8
82.63, 12
82.64, 13
82.65, 6
82.66, 10
82.67, 10
82.68, 7
82.69, 17
82.7, 15
82.71, 15
82.72, 13
82.73, 16
82.74, 5
82.75, 3
82.76, 14
82.77, 14
82.78, 12
82.79, 8
82.8, 11
82.81, 12
82.82, 6
82.83, 7
82.84, 8
82.85, 1
82.86, 6
82.87, 17
82.88, 12
82.89, 11
82.9, 11
82.91, 7
82.92, 9
82.93, 10
82.94, 8
82.95, 8
82.96, 3
82.97, 9
82.98, 11
82.99, 10
83, 12
83.01, 8
83.02, 17
83.03, 5
83.04, 13
83.05, 16
83.06, 9
83.07, 8
83.08, 7
83.09, 10
83.1, 13
83.11, 12
83.12, 8
83.13, 4
83.14, 13
83.15, 16
83.16, 3
83.17, 4
83.18, 8
83.19, 8
83.2, 7
83.21, 9
83.22, 13
83.23, 13
83.24, 11
83.25, 9
83.26, 10
83.27, 17
83.28, 9
83.29, 12
83.3, 7
83.31, 4
83.32, 12
83.33, 14
83.34, 8
83.35, 5
83.36, 9
83.37, 10
83.38, 11
83.39, 5
83.4, 14
83.41, 10
83.42, 4
83.43, 11
83.44, 8
83.45, 12
83.46, 8
83.47, 15
83.48, 8
83.49, 9
83.5, 7
83.51, 10
83.52, 14
83.53, 9
83.54, 9
83.55, 7
83.56, 9
83.57, 9
83.58, 8
83.59, 12
83.6, 14
83.61, 12
83.62, 13
83.63, 7
83.64, 8
83.65, 8
83.66, 4
83.67, 10
83.68, 7
83.69, 7
83.7, 11
83.71, 6
83.72, 7
83.73, 7
83.74, 10
83.75, 9
83.76, 11
83.77, 15
83.78, 13
83.79, 9
83.8, 6
83.81, 10
83.82, 9
83.83, 8
83.84, 19
83.85, 10
83.86, 12
83.87, 10
83.88, 7
83.89, 5
83.9, 9
83.91, 11
83.92, 5
83.93, 10
83.94, 7
83.95, 9
83.96, 13
83.97, 14
83.98, 8
83.99, 11
84, 7
84.01, 6
84.02, 16
84.03, 10
84.04, 8
84.05, 8
84.06, 10
84.07, 7
84.08, 10
84.09, 11
84.1, 9
84.11, 11
84.12, 9
84.13, 5
84.14, 8
84.15, 13
84.16, 9
84.17, 9
84.18, 10
84.19, 13
84.2, 6
84.21, 12
84.22, 8
84.23, 11
84.24, 13
84.25, 19
84.26, 10
84.27, 9
84.28, 7
84.29, 10
84.3, 17
84.31, 7
84.32, 12
84.33, 14
84.34, 14
84.35, 13
84.36, 11
84.37, 12
84.38, 11
84.39, 15
84.4, 7
84.41, 7
84.42, 17
84.43, 6
84.44, 13
84.45, 7
84.46, 19
84.47, 10
84.48, 6
84.49, 11
84.5, 13
84.51, 7
84.52, 14
84.53, 16
84.54, 16
84.55, 15
84.56, 12
84.57, 8
84.58, 8
84.59, 7
84.6, 8
84.61, 15
84.62, 10
84.63, 7
84.64, 8
84.65, 10
84.66, 15
84.67, 14
84.68, 10
84.69, 9
84.7, 14
84.71, 11
84.72, 19
84.73, 17
84.74, 11
84.75, 9
84.76, 12
84.77, 10
84.78, 7
84.79, 10
84.8, 8
84.81, 10
84.82, 13
84.83, 12
84.84, 12
84.85, 10
84.86, 10
84.87, 4
84.88, 6
84.89, 13
84.9, 14
84.91, 17
84.92, 11
84.93, 8
84.94, 9
84.95, 12
84.96, 7
84.97, 11
84.98, 10
84.99, 10
85, 13
85.01, 11
85.02, 4
85.03, 10
85.04, 5
85.05, 9
85.06, 12
85.07, 6
85.08, 13
85.09, 6
85.1, 6
85.11, 10
85.12, 7
85.13, 7
85.14, 10
85.15, 9
85.16, 10
85.17, 7
85.18, 9
85.19, 7
85.2, 4
85.21, 11
85.22, 6
85.23, 12
85.24, 10
85.25, 10
85.26, 10
85.27, 5
85.28, 10
85.29, 5
85.3, 6
85.31, 10
85.32, 9
85.33, 12
85.34, 15
85.35, 9
85.36, 15
85.37, 6
85.38, 8
85.39, 8
85.4, 9
85.41, 12
85.42, 3
85.43, 16
85.44, 2
85.45, 15
85.46, 12
85.47, 6
85.48, 12
85.49, 12
85.5, 8
85.51, 14
85.52, 10
85.53, 5
85.54, 7
85.55, 9
85.56, 10
85.57, 13
85.58, 9
85.59, 11
85.6, 14
85.61, 15
85.62, 5
85.63, 14
85.64, 7
85.65, 8
85.66, 7
85.67, 9
85.68, 3
85.69, 14
85.7, 4
85.71, 10
85.72, 15
85.73, 11
85.74, 9
85.75, 8
85.76, 19
85.77, 5
85.78, 5
85.79, 12
85.8, 9
85.81, 8
85.82, 4
85.83, 17
85.84, 9
85.85, 12
85.86, 20
85.87, 8
85.88, 6
85.89, 7
85.9, 13
85.91, 9
85.92, 13
85.93, 9
85.94, 13
85.95, 12
85.96, 11
85.97, 10
85.98, 6
85.99, 9
86, 10
86.01, 9
86.02, 11
86.03, 6
86.04, 11
86.05, 9
86.06, 12
86.07, 7
86.08, 7
86.09, 8
86.1, 11
86.11, 11
86.12, 11
86.13, 6
86.14, 6
86.15, 6
86.16, 8
86.17, 5
86.18, 12
86.19, 9
86.2, 5
86.21, 9
86.22, 13
86.23, 5
86.24, 10
86.25, 6
86.26, 6
86.27, 13
86.28, 13
86.29, 8
86.3, 8
86.31, 11
86.32, 7
86.33, 7
86.34, 8
86.35, 8
86.36, 7
86.37, 9
86.38, 8
86.39, 8
86.4, 12
86.41, 6
86.42, 13
86.43, 11
86.44, 3
86.45, 7
86.46, 9
86.47, 9
86.48, 11
86.49, 9
86.5, 4
86.51, 16
86.52, 8
86.53, 6
86.54, 6
86.55, 9
86.56, 11
86.57, 7
86.58, 10
86.59, 12
86.6, 13
86.61, 8
86.62, 11
86.63, 11
86.64, 9
86.65, 11
86.66, 5
86.67, 6
86.68, 7
86.69, 8
86.7, 5
86.71, 7
86.72, 10
86.73, 10
86.74, 11
86.75, 8
86.76, 8
86.77, 7
86.78, 12
86.79, 8
86.8, 7
86.81, 13
86.82, 11
86.83, 7
86.84, 12
86.85, 11
86.86, 5
86.87, 5
86.88, 6
86.89, 13
86.9, 11
86.91, 4
86.92, 11
86.93, 15
86.94, 10
86.95, 11
86.96, 8
86.97, 8
86.98, 7
86.99, 9
87, 11
87.01, 10
87.02, 6
87.03, 10
87.04, 7
87.05, 10
87.06, 9
87.07, 11
87.08, 9
87.09, 9
87.1, 9
87.11, 16
87.12, 15
87.13, 7
87.14, 8
87.15, 14
87.16, 9
87.17, 4
87.18, 12
87.19, 7
87.2, 10
87.21, 8
87.22, 11
87.23, 7
87.24, 18
87.25, 14
87.26, 15
87.27, 11
87.28, 9
87.29, 11
87.3, 10
87.31, 10
87.32, 9
87.33, 10
87.34, 10
87.35, 6
87.36, 5
87.37, 15
87.38, 9
87.39, 18
87.4, 7
87.41, 13
87.42, 12
87.43, 14
87.44, 9
87.45, 12
87.46, 15
87.47, 15
87.48, 15
87.49, 15
87.5, 25
87.51, 17
87.52, 21
87.53, 20
87.54, 14
87.55, 19
87.56, 21
87.57, 14
87.58, 16
87.59, 12
87.6, 20
87.61, 12
87.62, 9
87.63, 22
87.64, 6
87.65, 16
87.66, 15
87.67, 10
87.68, 16
87.69, 12
87.7, 8
87.71, 6
87.72, 12
87.73, 11
87.74, 9
87.75, 17
87.76, 8
87.77, 11
87.78, 16
87.79, 21
87.8, 15
87.81, 9
87.82, 13
87.83, 9
87.84, 12
87.85, 11
87.86, 14
87.87, 15
87.88, 18
87.89, 6
87.9, 10
87.91, 11
87.92, 8
87.93, 12
87.94, 9
87.95, 8
87.96, 16
87.97, 9
87.98, 5
87.99, 14
88, 8
88.01, 10
88.02, 14
88.03, 16
88.04, 7
88.05, 14
88.06, 11
88.07, 6
88.08, 12
88.09, 10
88.1, 8
88.11, 12
88.12, 6
88.13, 5
88.14, 8
88.15, 7
88.16, 5
88.17, 15
88.18, 8
88.19, 9
88.2, 11
88.21, 7
88.22, 14
88.23, 8
88.24, 12
88.25, 10
88.26, 10
88.27, 10
88.28, 10
88.29, 10
88.3, 7
88.31, 14
88.32, 15
88.33, 13
88.34, 17
88.35, 11
88.36, 10
88.37, 13
88.38, 8
88.39, 14
88.4, 18
88.41, 16
88.42, 15
88.43, 14
88.44, 19
88.45, 13
88.46, 11
88.47, 21
88.48, 22
88.49, 15
88.5, 16
88.51, 18
88.52, 16
88.53, 17
88.54, 18
88.55, 16
88.56, 12
88.57, 19
88.58, 9
88.59, 17
88.6, 14
88.61, 16
88.62, 14
88.63, 11
88.64, 9
88.65, 12
88.66, 10
88.67, 10
88.68, 14
88.69, 14
88.7, 20
88.71, 14
88.72, 14
88.73, 14
88.74, 12
88.75, 15
88.76, 20
88.77, 17
88.78, 10
88.79, 10
88.8, 19
88.81, 14
88.82, 10
88.83, 8
88.84, 9
88.85, 18
88.86, 16
88.87, 13
88.88, 10
88.89, 17
88.9, 14
88.91, 12
88.92, 16
88.93, 9
88.94, 10
88.95, 7
88.96, 16
88.97, 7
88.98, 14
88.99, 14
89, 10
89.01, 10
89.02, 14
89.03, 5
89.04, 11
89.05, 9
89.06, 14
89.07, 10
89.08, 9
89.09, 11
89.1, 8
89.11, 11
89.12, 15
89.13, 7
89.14, 21
89.15, 10
89.16, 18
89.17, 10
89.18, 5
89.19, 11
89.2, 12
89.21, 7
89.22, 10
89.23, 8
89.24, 14
89.25, 5
89.26, 12
89.27, 4
89.28, 10
89.29, 10
89.3, 2
89.31, 15
89.32, 10
89.33, 12
89.34, 6
89.35, 13
89.36, 12
89.37, 11
89.38, 8
89.39, 13
89.4, 7
89.41, 7
89.42, 7
89.43, 5
89.44, 11
89.45, 17
89.46, 14
89.47, 18
89.48, 11
89.49, 9
89.5, 8
89.51, 12
89.52, 10
89.53, 8
89.54, 8
89.55, 8
89.56, 9
89.57, 3
89.58, 10
89.59, 9
89.6, 12
89.61, 11
89.62, 7
89.63, 8
89.64, 9
89.65, 10
89.66, 12
89.67, 12
89.68, 6
89.69, 7
89.7, 9
89.71, 5
89.72, 14
89.73, 5
89.74, 10
89.75, 8
89.76, 8
89.77, 10
89.78, 8
89.79, 11
89.8, 11
89.81, 13
89.82, 11
89.83, 12
89.84, 10
89.85, 12
89.86, 12
89.87, 9
89.88, 10
89.89, 10
89.9, 11
89.91, 12
89.92, 11
89.93, 8
89.94, 12
89.95, 11
89.96, 11
89.97, 6
89.98, 10
89.99, 16
90, 5
##END=



